11026
10962
10768
10655
10591
10478
10388
10351
10398
10351
10058
9867
9879
9815
9728
9704
9607
9428
9305
9263
9241
9180
9024
8909
8878
8739
8519
8484
8814
9418
9697
8975
7901
7651
7868
7847
7785
7785
7736
7681
7611
7514
7460
7436
7379
7290
7221
7190
7134
7056
7037
7025
6964
6912
6867
6803
6742
6674
6605
6541
6431
6291
6199
6088
5926
5810
5763
5699
5621
5569
5529
5458
5373
5331
5324
5272
5189
5147
5135
5088
5029
4998
4998
4944
4816
4771
4762
4672
4597
4592
4573
4524
4484
4441
4406
4375
4290
4198
4177
4151
4080
4056
4045
3990
3955
3945
3905
3849
3820
3806
3778
3731
3686
3665
3636
3589
3575
3568
3499
3426
3414
3407
3372
3332
3315
3311
3296
3263
3216
3160
3110
3089
3077
3060
3030
2992
2961
2898
2763
2787
3254
3896
3988
3235
2428
2352
2562
2555
2560
2640
2624
2574
2581
2560
2480
2470
2539
2522
2409
2381
2423
2423
2416
2430
2433
2428
2428
2416
2381
2355
2381
2400
2352
2256
2166
2102
2043
1970
1902
1876
1890
1873
1814
1795
1819
1795
1772
1800
1788
1746
1732
1699
1673
1699
1687
1647
1654
1668
1652
1626
1604
1595
1590
1574
1536
1529
1569
1562
1508
1496
1486
1470
1493
1489
1427
1413
1420
1397
1406
1411
1380
1385
1385
1352
1347
1338
1298
1290
1276
1227
1215
1220
1198
1184
1201
1241
1255
1241
1246
1208
1137
1154
1194
1151
1121
1142
1137
1113
1045
932
1019
1503
2105
2152
1416
691
658
873
922
993
1057
1017
993
1014
1033
1040
1038
1019
1000
1036
1095
1085
1066
1085
1099
1125
1154
1144
1123
1154
1191
1163
1113
1071
998
906
821
745
715
738
712
653
641
625
582
597
634
615
561
549
575
573
545
540
549
559
578
597
594
590
592
597
594
585
580
587
592
580
578
592
599
580
561
580
597
578
571
601
613
585
575
594
585
561
578
611
601
578
573
578
580
571
556
566
580
556
554
582
594
587
568
535
531
540
521
509
514
497
469
424
328
302
641
1302
1663
1170
285
2
240
318
309
405
441
413
415
403
358
344
358
342
313
325
358
375
396
431
467
488
512
542
568
573
571
564
540
488
429
379
330
269
233
231
226
214
214
217
210
207
224
240
247
252
259
266
269
278
295
302
299
304
323
332
325
304
280
276
280
280
287
297
287
280
297
311
302
292
297
302
290
287
299
283
236
210
221
233
226
221
233
238
243
247
252
252
257
259
269
283
276
264
273
280
280
290
302
280
226
198
224
233
207
193
212
224
181
87
94
464
1123
1451
901
9
-210
61
129
110
202
250
233
226
228
243
264
276
287
302
311
328
354
384
403
415
427
448
472
490
502
502
495
472
429
372
304
236
195
181
155
132
134
132
96
75
99
118
110
113
129
136
127
127
141
141
132
136
141
136
136
141
143
146
151
165
165
155
153
162
169
167
160
148
141
139
134
127
110
75
66
87
101
103
101
103
110
106
101
110
99
47
28
63
75
63
73
89
89
96
118
136
146
134
106
89
101
110
106
110
115
113
87
0
-11
356
1019
1314
733
-162
-384
-113
-44
-61
40
70
21
16
56
82
82
92
115
122
129
158
179
186
217
254
271
290
320
344
339
306
290
285
250
184
125
80
42
16
-2
-18
-25
-23
-21
-4
16
25
30
44
63
73
73
82
92
92
103
129
141
136
132
141
153
151
146
155
162
151
155
177
174
155
148
143
120
92
92
115
113
101
108
127
136
136
134
134
136
148
160
174
193
200
186
158
141
139
127
110
118
132
132
84
-21
51
559
1172
1203
462
-254
-271
-30
11
56
153
160
151
179
188
191
207
219
219
233
250
266
285
302
316
344
379
403
420
431
429
424
413
365
285
210
158
108
63
28
4
-23
-73
-99
-70
-51
-59
-51
-37
-33
-23
-11
0
9
14
14
21
9
-25
-47
-40
-33
-25
-7
4
2
-7
-2
14
21
25
33
33
40
51
63
68
56
56
82
108
125
134
122
82
75
103
113
106
108
110
99
23
-59
162
783
1307
1066
172
-349
-169
0
-7
75
146
132
148
184
179
179
207
219
217
233
259
269
257
254
290
332
351
370
401
417
403
372
335
290
228
151
73
9
-30
-47
-47
-49
-49
-35
-21
-23
-18
4
16
9
9
25
37
40
49
59
61
59
51
51
56
40
28
37
42
35
33
28
14
7
18
30
33
30
25
30
35
47
66
84
94
92
66
54
68
73
68
77
77
70
42
-63
-82
323
1024
1283
618
-271
-410
-151
-129
-113
11
37
18
54
82
92
108
125
136
151
167
188
217
238
252
283
318
346
363
375
384
382
363
325
276
210
139
87
59
25
-2
-4
0
-4
2
18
30
28
28
42
51
54
61
70
56
16
0
21
33
23
21
35
40
40
42
49
42
35
42
33
7
-4
-11
-11
11
35
44
23
-49
-115
-101
-68
-75
-84
-73
-70
-115
-226
-202
243
925
1175
542
-325
-472
-212
-172
-158
-61
-42
-42
-16
-14
-18
-4
7
14
30
51
68
92
122
153
179
202
236
269
290
299
304
285
243
193
139
82
28
-9
-28
-40
-42
-33
-30
-28
-14
-4
-18
-42
-47
-33
-16
-2
11
21
30
35
44
54
61
66
66
70
82
66
28
16
37
42
42
80
118
115
75
42
54
77
77
73
68
42
28
-16
-101
51
644
1229
1092
224
-379
-231
-23
-47
9
103
106
99
127
139
136
136
141
158
160
158
181
212
226
245
278
306
318
325
325
304
285
257
212
160
96
35
2
-21
-51
-61
-49
-37
-30
-30
-25
-4
7
4
11
11
-11
-23
0
18
9
4
21
40
40
21
16
28
28
35
51
42
28
35
47
37
21
37
73
61
14
7
35
44
49
54
54
54
30
-49
-80
226
880
1293
833
-80
-387
-141
-49
-49
42
56
25
54
80
89
110
125
129
148
172
184
207
238
247
250
280
313
323
330
344
351
328
290
250
195
127
66
21
-23
-87
-127
-113
-94
-99
-96
-84
-77
-80
-84
-80
-66
-56
-49
-40
-44
-44
-23
-9
-14
-16
-16
-9
-2
-7
0
16
11
2
14
18
7
2
14
37
51
42
28
7
-16
-9
14
25
33
30
25
14
-68
-129
153
795
1215
842
-28
-420
-202
-59
-56
33
87
75
99
120
110
113
136
151
153
172
193
186
169
193
238
257
271
299
318
323
325
323
297
240
181
132
80
30
-2
-21
-23
-25
-23
-16
-11
-14
-16
-14
-9
-14
-21
-9
-4
-21
-25
-11
-9
-16
-9
2
7
4
7
9
7
11
23
21
11
18
35
42
40
33
4
-30
-35
-25
-30
-51
-63
-56
-47
-77
-202
-236
146
823
1128
578
-280
-505
-252
-160
-139
-54
-54
-68
-25
-9
-11
16
44
44
51
82
110
125
146
172
186
186
207
238
254
250
240
224
174
94
33
-9
-66
-113
-125
-132
-143
-146
-146
-139
-127
-120
-110
-96
-92
-89
-70
-51
-47
-44
-35
-23
-16
-18
-14
-2
0
4
16
25
25
16
11
16
16
11
16
18
16
30
54
73
87
84
51
28
42
59
61
49
11
-9
0
-75
-188
4
623
1180
972
61
-483
-304
-136
-160
-94
-21
-25
-11
21
30
44
70
87
99
118
141
162
181
207
238
264
280
302
328
344
335
311
280
233
174
125
82
30
-4
-16
-16
-18
-18
-11
0
9
11
23
35
42
49
54
66
70
73
77
80
82
87
96
101
89
87
92
77
63
68
73
63
35
4
9
21
9
-9
-14
-4
-2
-4
4
25
49
77
87
56
18
25
40
14
-23
-25
-16
-40
-122
-202
-21
566
1142
988
89
-500
-330
-132
-143
-75
0
-7
9
40
40
51
84
94
103
127
143
153
179
214
240
257
278
306
328
328
332
339
316
257
198
151
96
40
9
-4
-18
-23
-14
-9
-28
-40
-14
4
-23
-49
-30
-11
-11
-4
14
21
14
23
42
44
47
49
47
54
56
47
47
56
42
30
44
51
44
40
47
54
51
56
68
68
54
56
66
66
63
75
87
96
113
115
82
35
21
33
33
25
25
11
-18
-89
-153
77
703
1220
936
18
-450
-231
-66
-77
-21
11
2
23
40
42
63
87
75
49
63
96
101
113
148
179
210
245
257
252
259
266
269
257
221
167
120
70
18
-14
-30
-44
-51
-47
-37
-30
-25
-14
2
9
16
21
28
33
37
42
40
21
14
25
30
14
2
11
14
-2
0
30
49
30
14
28
44
44
49
44
4
-56
-80
-56
-59
-87
-89
-70
-63
-56
-35
-16
-23
-59
-94
-101
-94
-92
-94
-75
-61
-66
-84
-165
-219
66
710
1121
717
-151
-495
-259
-132
-139
-47
-4
-33
-11
28
30
35
49
54
63
80
92
113
139
155
162
174
198
217
221
228
228
221
212
181
122
51
2
-28
-68
-110
-141
-162
-162
-148
-134
-115
-106
-101
-80
-54
-54
-49
-28
-23
-33
-28
-21
-23
-25
-28
-30
-40
-75
-101
-87
-82
-94
-84
-63
-54
-51
-51
-47
-42
-42
-28
-11
-7
2
33
51
28
-7
-7
18
28
28
35
30
-7
-92
-146
89
689
1151
859
11
-422
-214
-44
-47
30
99
99
113
120
99
108
143
153
162
188
210
217
238
271
299
316
337
354
351
354
365
358
318
257
198
146
89
40
7
-21
-37
-35
-23
-9
-9
-16
-2
14
-16
-44
-23
0
-11
-14
0
0
-14
-25
-14
2
-9
-23
-16
-16
-18
-11
2
2
-9
-14
-2
-11
-47
-49
-33
-35
-30
-4
33
40
-2
-42
-37
-16
-7
2
7
0
-9
-68
-153
16
587
1118
939
89
-450
-287
-110
-122
-37
44
23
28
66
68
66
84
101
115
122
125
143
177
193
205
231
245
233
210
202
205
188
155
110
47
-16
-61
-94
-132
-155
-151
-134
-125
-125
-115
-96
-80
-70
-56
-40
-35
-42
-33
-25
-49
-68
-56
-40
-37
-35
-25
-14
-21
-18
-4
-7
-25
-30
-16
-2
2
7
21
25
16
16
30
35
42
56
73
96
103
84
63
66
75
75
82
94
92
68
-21
-70
233
896
1321
892
-25
-370
-115
-21
-70
14
73
54
70
108
118
125
134
146
167
186
195
210
217
228
257
285
299
292
290
306
311
297
273
240
186
115
51
16
-4
-33
-44
-35
-37
-51
-47
-44
-56
-54
-33
-16
-14
-14
-9
0
7
9
18
25
21
21
35
42
37
35
35
40
42
33
16
2
-25
-44
-25
-11
-16
-14
-11
-18
-37
-30
9
37
18
-11
-9
7
11
18
28
30
30
-7
-110
-82
368
1026
1163
443
-325
-354
-118
-101
-59
44
56
44
63
84
101
113
115
115
129
146
160
184
207
226
245
276
302
311
320
332
330
309
280
240
184
122
73
25
-21
-49
-59
-66
-75
-75
-54
-40
-42
-35
-18
-16
-16
0
16
9
-25
-49
-33
-23
-28
-16
-4
-7
-9
2
4
-21
-49
-35
-9
-7
-18
-21
-11
-11
-14
-4
9
16
23
42
73
80
42
14
28
42
40
49
63
56
25
-54
-94
195
830
1231
809
-61
-377
-134
-21
-30
42
73
63
89
108
108
122
136
141
146
155
167
179
202
221
233
259
292
299
299
311
316
304
269
221
169
89
-2
-56
-96
-148
-174
-174
-174
-181
-181
-167
-155
-148
-139
-113
-94
-99
-94
-70
-61
-59
-51
-44
-44
-40
-25
-18
-28
-35
-23
-14
-33
-73
-82
-59
-56
-63
-54
-51
-54
-28
-2
-16
-49
-42
-18
-21
-30
-16
-4
-7
-61
-165
-70
446
1052
1052
283
-403
-375
-139
-110
-63
25
23
21
56
59
37
33
37
40
51
75
92
103
125
148
151
136
158
188
184
172
169
148
106
51
-7
-63
-110
-136
-151
-162
-167
-158
-143
-129
-120
-106
-92
-80
-77
-70
-51
-47
-59
-51
-40
-51
-59
-42
-28
-30
-35
-28
-16
-16
-23
-21
-7
-2
-2
0
4
7
14
40
73
73
40
21
33
40
16
4
18
23
16
-33
-120
14
566
1137
1028
207
-379
-254
-77
-120
-59
47
44
44
77
92
99
115
134
148
153
167
200
231
247
264
280
292
306
325
335
332
318
292
257
202
136
82
40
11
-7
-16
-14
-16
-25
-25
-11
-4
-4
2
14
21
25
30
40
42
37
40
42
33
16
2
-2
2
2
2
-2
-14
-33
-33
-21
-21
-28
-23
-23
-37
-37
-11
7
-2
-28
-44
-68
-99
-96
-70
-68
-75
-56
-49
-132
-238
-54
556
1137
993
129
-438
-295
-115
-110
-25
37
18
30
68
77
87
110
127
129
141
169
191
207
231
257
278
299
318
337
346
335
313
290
252
181
101
51
14
-21
-35
-35
-37
-40
-35
-33
-42
-37
-25
-18
-16
-9
0
16
18
14
25
42
40
40
47
42
9
-28
-33
-16
-21
-42
-40
-30
-37
-40
-35
-40
-42
-35
-23
-18
-25
-30
-16
-4
-2
18
49
59
37
11
11
30
28
23
37
44
33
-25
-136
-66
441
1099
1175
394
-375
-361
-106
-92
-59
35
42
28
56
82
89
103
118
125
139
158
179
207
228
236
259
297
318
325
335
330
306
283
259
210
146
82
35
4
-47
-99
-101
-89
-96
-89
-66
-56
-59
-51
-37
-23
-18
-11
-2
0
2
11
25
28
23
18
18
7
-16
-23
-21
-25
-33
-25
-23
-49
-70
-63
-56
-75
-101
-101
-75
-68
-73
-63
-42
-40
-49
-44
-30
-23
-16
9
37
44
37
14
-2
7
11
7
14
16
16
-9
-110
-101
320
995
1222
582
-243
-365
-127
-108
-96
9
23
0
35
63
68
82
96
106
120
139
162
191
205
212
221
245
276
297
304
299
290
273
228
153
82
35
-4
-49
-82
-92
-89
-89
-92
-84
-70
-63
-56
-44
-33
-25
-21
-16
-16
-25
-35
-44
-49
-54
-54
-47
-40
-40
-40
-30
-18
-25
-33
-21
-9
-11
-14
-7
0
-4
-2
14
21
14
18
30
35
37
37
33
14
-14
-23
-4
0
-4
23
42
9
-21
-2
14
9
16
21
-2
-51
-148
-132
290
948
1154
523
-278
-408
-146
-70
-47
35
49
47
82
94
94
110
122
120
132
160
174
174
188
221
243
254
276
299
309
306
309
304
269
207
148
101
56
9
-23
-42
-54
-56
-59
-63
-70
-77
-75
-63
-63
-73
-68
-68
-125
-184
-155
-115
-125
-122
-103
-96
-99
-115
-127
-115
-110
-110
-92
-75
-80
-77
-66
-66
-63
-51
-40
-40
-42
-33
-21
-23
-33
-44
-54
-49
-44
-35
-11
4
11
11
-14
-44
-37
-14
-21
-28
-18
-14
-49
-160
-165
252
922
1144
521
-297
-443
-191
-125
-106
-18
2
-2
11
4
0
28
49
51
66
96
125
141
155
179
214
238
240
245
261
245
207
205
195
136
66
11
-40
-89
-120
-127
-134
-146
-141
-118
-120
-134
-115
-96
-96
-87
-66
-47
-40
-40
-28
-4
2
2
11
21
21
21
30
37
35
28
33
42
44
47
54
56
51
54
66
73
61
49
59
66
63
68
82
77
68
73
84
87
82
82
101
113
101
84
59
23
0
0
14
21
21
7
-73
-158
42
649
1208
1014
122
-424
-257
-84
-106
-35
37
33
44
75
84
87
103
122
132
134
136
146
162
177
193
226
257
266
276
295
299
283
257
221
146
51
-16
-61
-99
-120
-120
-115
-113
-101
-87
-82
-77
-63
-47
-37
-30
-25
-23
-37
-44
-25
-9
-9
-4
7
18
25
23
21
25
18
-14
-28
-21
-35
-42
-21
-4
-2
0
4
11
18
21
30
44
42
35
47
59
51
40
44
44
37
40
51
66
77
96
106
80
44
44
61
51
35
42
56
28
-75
-108
228
892
1267
764
-146
-434
-179
-84
-89
-7
14
-21
-18
0
16
37
54
61
75
99
118
136
158
184
214
236
252
276
285
259
236
240
233
184
120
73
30
-14
-47
-63
-75
-80
-68
-49
-42
-42
-35
-23
-11
-4
4
18
18
16
33
44
47
44
40
42
44
44
51
61
51
40
51
66
61
42
33
33
30
30
44
49
35
28
11
2
9
11
9
14
23
33
37
35
28
23
23
21
28
35
16
-25
-42
-18
-7
-14
-11
-2
-11
-70
-160
-30
512
1083
986
162
-464
-410
-228
-200
-127
-54
-54
-37
-9
-4
7
33
37
35
44
70
101
129
148
172
198
224
247
266
276
278
273
261
224
162
103
49
-14
-80
-115
-115
-125
-136
-129
-118
-115
-108
-92
-89
-103
-103
-82
-68
-70
-70
-59
-51
-51
-44
-30
-33
-51
-51
-42
-35
-30
-25
-28
-28
-23
-18
-4
-2
-11
-4
9
-7
-44
-42
-21
-21
-37
-47
-44
-47
-51
-35
-4
11
9
-21
-49
-40
-16
-7
-2
-2
-4
-35
-136
-110
332
984
1125
434
-332
-391
-141
-103
-75
28
49
37
54
63
66
82
106
125
139
155
172
193
212
238
273
304
323
339
354
358
354
339
304
247
181
122
77
37
0
-18
-14
-14
-11
-9
-21
-47
-68
-59
-33
-25
-28
-14
2
11
21
30
35
37
42
51
56
47
33
33
44
40
30
18
-7
-18
-7
7
11
7
7
14
9
-4
2
14
9
4
18
30
37
47
35
-4
-54
-82
-77
-61
-63
-63
-49
-70
-172
-181
202
873
1175
615
-243
-443
-193
-127
-110
-14
2
-16
14
37
37
49
70
73
49
40
73
106
115
143
188
205
207
224
254
266
252
233
207
158
84
-7
-73
-108
-136
-151
-146
-151
-167
-160
-139
-132
-125
-110
-103
-96
-80
-61
-49
-47
-33
-14
-7
-7
2
16
21
16
23
37
44
35
25
21
21
21
30
37
33
23
14
11
23
23
21
28
37
37
37
42
42
47
66
87
99
89
54
2
-37
-47
-35
-28
-35
-35
-42
-120
-177
99
745
1201
816
-99
-474
-250
-134
-132
-37
9
-2
16
42
54
70
89
110
127
129
141
177
200
219
250
276
292
318
344
354
344
332
318
276
210
151
99
33
-18
-28
-23
-30
-33
-28
-16
0
4
11
18
21
28
40
51
56
56
59
68
73
73
84
87
56
16
18
42
35
2
-9
-4
-11
-18
-7
-2
-33
-51
-30
-16
-30
-42
-33
-21
-18
-14
-4
-7
-16
-9
14
16
18
33
28
-16
-51
-37
-11
-21
-37
-35
-21
-47
-155
-177
217
894
1161
568
-273
-448
-200
-132
-115
-30
-14
-25
-7
4
11
35
49
44
47
68
92
96
108
139
165
184
210
231
226
205
191
184
165
127
77
23
-49
-125
-153
-143
-146
-155
-141
-125
-115
-101
-80
-70
-68
-59
-37
-14
-9
-7
4
4
9
21
28
33
37
37
30
25
21
28
40
35
16
11
28
35
23
21
33
37
37
42
47
40
40
49
59
61
66
80
103
110
75
35
35
44
23
-9
-33
-49
-77
-155
-177
146
783
1116
632
-200
-457
-212
-103
-101
-18
25
7
-14
-9
18
33
37
59
87
106
120
139
167
195
219
252
283
290
292
304
311
299
266
226
174
110
54
18
-9
-49
-61
-42
-40
-42
-28
-16
-16
-11
-2
11
21
16
23
40
42
37
44
42
16
-14
-28
-35
-37
-37
-30
-16
-11
-16
-9
-4
-4
-2
9
21
11
-7
-11
-4
0
7
23
25
-18
-82
-89
-61
-61
-68
-56
-44
-49
-89
-200
-214
184
854
1092
472
-365
-535
-287
-224
-202
-96
-77
-96
-68
-51
-49
-33
-14
-4
11
30
49
73
101
127
153
191
224
245
252
254
247
214
160
118
68
2
-44
-68
-96
-106
-101
-101
-99
-89
-73
-49
-42
-47
-37
-11
0
2
14
21
25
35
44
51
51
49
56
51
11
-18
-7
2
-4
2
23
30
23
21
35
44
40
40
54
59
61
84
115
120
89
54
54
75
82
75
61
54
35
-40
-120
77
670
1210
1026
139
-434
-271
-82
-101
-30
51
47
54
77
84
96
101
101
110
115
113
132
167
188
207
233
257
276
285
295
306
304
269
210
146
87
33
-9
-44
-84
-127
-134
-110
-101
-108
-92
-68
-61
-59
-44
-35
-23
-14
-7
-2
-30
-56
-35
-11
-21
-11
4
2
-4
-4
-4
-7
-9
-9
-9
-30
-51
-33
-18
-30
-28
-18
-16
-14
-9
0
21
44
54
30
-4
-16
2
14
16
14
9
2
-54
-172
-84
455
1095
1097
271
-448
-394
-174
-174
-125
-42
-42
-42
-11
-14
-47
-40
-7
7
11
35
51
59
80
106
132
155
177
198
219
224
214
200
162
94
33
-4
-37
-82
-118
-134
-153
-160
-141
-120
-113
-106
-89
-70
-56
-49
-42
-25
-9
-4
0
14
18
14
23
40
40
35
42
51
59
51
40
44
49
47
49
59
66
66
68
73
75
68
75
77
66
70
96
118
132
136
108
68
70
92
96
84
54
30
28
-44
-129
94
710
1208
910
4
-434
-217
-92
-125
-51
2
-9
14
47
42
49
84
106
108
115
139
153
160
174
193
210
231
252
266
273
276
264
231
174
110
56
11
-35
-75
-92
-89
-89
-96
-94
-82
-89
-122
-122
-92
-84
-87
-68
-44
-37
-33
-28
-21
-11
0
11
11
4
2
11
7
-7
-9
-4
-9
-37
-59
-35
-21
-49
-63
-44
-35
-33
-16
7
28
35
18
-2
0
7
16
30
35
28
25
-28
-132
4
564
1137
1031
200
-403
-283
-80
-96
-35
49
33
35
80
87
82
101
120
129
141
160
181
195
214
243
273
302
316
318
323
323
304
264
210
143
75
11
-37
-75
-101
-113
-110
-110
-108
-92
-94
-143
-184
-155
-122
-120
-110
-92
-77
-68
-56
-40
-35
-42
-33
-14
-4
-7
-7
-2
2
0
-9
-9
-4
-7
-4
4
4
0
11
30
44
61
73
54
21
18
40
49
49
49
49
37
-21
-110
42
618
1187
1045
198
-382
-250
-56
-73
-23
54
56
68
99
96
94
120
141
141
148
148
132
136
172
207
231
252
266
283
290
261
236
221
172
101
51
11
-40
-77
-94
-108
-134
-136
-125
-136
-179
-198
-167
-143
-143
-134
-120
-108
-103
-92
-66
-54
-61
-59
-37
-25
-30
-28
-18
-16
-16
-9
4
2
-7
2
18
16
2
4
14
9
7
11
25
33
44
73
94
68
25
9
2
0
14
25
28
21
-37
-141
-23
519
1156
1170
339
-410
-363
-110
-96
-59
9
7
16
49
61
70
82
92
110
136
155
167
181
205
221
231
259
287
290
297
309
304
280
233
174
118
63
16
-14
-37
-63
-75
-77
-77
-75
-77
-80
-77
-82
-82
-66
-59
-63
-54
-35
-25
-37
-56
-59
-47
-42
-35
-16
-16
-30
-21
-4
-7
-9
-2
0
-2
-2
0
-4
-9
-11
-4
0
-30
-59
-44
-33
-40
-18
21
47
49
28
0
0
14
18
23
25
23
28
-23
-125
-7
542
1172
1156
320
-365
-280
-77
-96
-33
56
44
40
73
82
89
108
125
129
122
127
158
181
186
188
207
238
259
271
290
299
285
261
236
181
110
47
7
-25
-70
-99
-101
-125
-167
-160
-129
-129
-129
-108
-94
-99
-87
-66
-56
-56
-56
-47
-40
-63
-87
-75
-61
-61
-54
-44
-42
-47
-42
-23
-7
-11
-25
-23
-18
-23
-16
2
2
-11
-9
4
11
16
42
73
73
37
9
16
16
2
4
14
11
14
-30
-134
-47
479
1109
1125
344
-351
-320
-110
-101
-44
44
42
33
63
82
77
75
89
108
115
125
146
169
193
212
231
261
290
302
306
313
295
236
188
153
87
7
-47
-94
-139
-160
-160
-155
-155
-148
-134
-127
-118
-108
-94
-82
-75
-63
-51
-49
-44
-30
-25
-49
-80
-70
-42
-33
-35
-30
-23
-25
-23
-16
-11
-23
-40
-30
-14
-11
-11
-4
0
-4
-2
18
40
51
61
49
16
11
28
40
37
28
35
47
4
-110
-73
384
1019
1139
450
-290
-339
-115
-84
-37
44
16
-4
37
47
33
47
73
77
80
103
129
151
172
198
224
245
261
266
254
224
193
179
160
101
37
-2
-56
-113
-148
-169
-177
-174
-174
-155
-139
-134
-122
-106
-101
-99
-80
-61
-56
-54
-44
-33
-23
-18
-11
-7
-7
-7
2
11
9
7
11
16
18
14
7
2
0
2
9
21
23
14
18
23
4
-4
33
42
-7
-21
4
16
21
28
30
28
-7
-125
-146
250
918
1184
608
-224
-401
-151
-101
-103
0
37
30
54
66
70
94
110
106
108
129
146
158
184
219
233
247
276
299
309
313
313
290
250
207
155
94
33
-11
-40
-70
-99
-103
-99
-103
-103
-92
-77
-75
-73
-63
-59
-54
-42
-30
-30
-56
-77
-61
-37
-42
-44
-33
-25
-25
-35
-54
-61
-56
-49
-35
-23
-21
-23
-25
-21
-16
-16
-9
-2
-2
9
33
56
70
61
30
18
33
42
49
51
44
42
-2
-106
-33
472
1130
1224
457
-309
-297
-61
-73
-47
49
51
44
87
92
70
82
108
115
118
134
153
153
141
153
193
219
228
250
276
283
276
254
217
172
108
18
-54
-120
-186
-212
-207
-210
-205
-184
-167
-158
-151
-134
-120
-115
-108
-89
-75
-68
-61
-51
-42
-35
-23
-14
-14
-16
-11
0
4
7
4
4
7
14
21
18
0
-7
11
25
16
9
16
21
28
42
63
89
84
42
18
42
51
40
47
59
56
35
-42
-101
148
771
1260
946
25
-427
-200
-61
-92
-21
30
16
23
37
47
49
30
30
61
77
82
110
148
169
184
210
240
261
271
287
295
266
221
177
118
47
-11
-54
-82
-108
-127
-129
-127
-129
-115
-92
-87
-87
-73
-54
-49
-49
-37
-21
-18
-21
-11
0
2
0
4
11
11
11
21
30
23
9
14
21
-4
-28
-28
-25
-21
-9
7
30
47
30
-2
-7
9
21
30
16
-23
-40
-56
-143
-129
297
944
1109
450
-311
-387
-146
-106
-68
40
56
40
56
44
25
49
77
82
82
94
118
141
141
134
160
200
214
226
252
264
245
224
202
151
75
4
-51
-96
-132
-148
-143
-139
-146
-136
-125
-148
-165
-143
-115
-106
-101
-89
-73
-68
-66
-49
-33
-33
-33
-21
-11
-16
-18
-11
-2
-4
-9
-2
-2
-37
-59
-35
-14
-4
21
30
0
-37
-35
-9
2
0
7
16
-2
-80
-139
101
708
1165
861
4
-429
-228
-66
-66
9
66
68
89
106
101
113
132
143
155
174
195
210
214
212
219
233
250
266
280
287
287
283
247
181
118
80
33
-21
-49
-61
-68
-68
-61
-51
-51
-51
-44
-40
-42
-44
-51
-54
-70
-101
-108
-94
-94
-96
-80
-66
-63
-56
-49
-49
-44
-37
-30
-28
-33
-37
-28
-23
-21
-2
23
42
47
30
0
-2
16
18
18
28
30
23
-33
-151
-103
356
1007
1144
410
-370
-377
-125
-108
-63
37
33
25
68
87
84
99
115
129
141
158
181
200
212
238
276
302
316
328
330
309
261
224
195
132
49
2
-33
-92
-146
-158
-148
-148
-141
-122
-108
-99
-94
-82
-63
-56
-44
-28
-25
-28
-23
-18
-21
-30
-44
-40
-28
-37
-49
-42
-35
-42
-61
-63
-49
-49
-56
-47
-42
-37
-18
4
23
37
25
-7
-16
0
7
11
18
21
23
-11
-125
-113
323
1003
1229
561
-292
-389
-113
-73
-49
49
54
42
82
99
94
106
122
120
101
96
132
158
165
191
231
257
273
295
311
316
311
297
264
202
129
61
9
-30
-63
-87
-101
-118
-125
-108
-94
-92
-87
-70
-54
-49
-42
-25
-23
-28
-18
-4
4
2
0
2
-4
-16
-21
-25
-35
-40
-37
-44
-61
-66
-56
-51
-47
-42
-30
-28
-42
-47
-28
-9
0
11
33
35
0
-23
-2
11
2
2
18
23
-2
-94
-155
106
717
1137
781
-103
-519
-285
-127
-134
-49
2
-33
-40
-9
11
25
42
51
75
101
118
132
158
184
202
226
257
273
259
233
231
238
212
162
115
56
-9
-59
-92
-115
-129
-134
-132
-127
-122
-110
-101
-99
-94
-80
-66
-59
-61
-61
-51
-44
-49
-44
-42
-49
-59
-61
-63
-77
-94
-99
-99
-96
-103
-132
-136
-139
-165
-146
-122
-155
-184
-184
-177
-155
-115
-89
-118
-158
-143
-108
-94
-89
-103
-125
-94
-75
-167
-226
63
693
1102
724
-143
-500
-259
-136
-141
-40
11
-2
23
42
49
80
103
101
118
155
174
184
210
231
243
264
290
309
337
361
342
302
278
245
188
122
59
9
-25
-56
-80
-84
-80
-82
-73
-37
-25
-37
-54
-63
-59
-70
-94
-80
-51
-54
-51
-25
-16
-33
-28
-16
-23
-40
-49
-51
-54
-63
-61
-51
-56
-61
-59
-44
-9
9
-9
-56
-77
-51
-14
0
0
9
0
-51
-165
-177
233
892
1043
325
-457
-450
-143
-106
-54
84
110
103
139
146
134
158
184
162
136
165
221
245
240
243
280
320
320
306
306
299
273
224
165
92
-2
-75
-87
-99
-148
-172
-155
-139
-127
-92
-75
-113
-127
-89
-80
-99
-94
-80
-84
-89
-96
-89
-59
-59
-73
-54
-40
-68
-92
-75
-51
-49
-54
-40
-47
-94
-89
-18
-18
-89
-110
-115
-134
-125
-125
-139
-139
-155
-188
-210
-287
-318
16
670
984
377
-523
-656
-339
-257
-200
-59
-33
-54
7
54
42
37
63
106
134
125
120
167
191
153
153
179
148
136
207
257
217
184
162
44
-54
-18
-30
-115
-118
-66
-49
-70
-92
-89
-73
-59
-80
-129
-143
-134
-129
-101
-44
23
75
77
77
82
47
11
-4
-4
33
28
-25
-11
18
18
18
21
40
35
-21
-33
9
4
-14
-14
-21
-28
-30
-40
-33
-4
-2
-2
16
28
44
68
66
23
-35
-66
-51
-33
-7
14
0
-18
-82
-165
21
611
1158
899
-70
-528
-217
-21
-33
56
103
94
127
139
136
158
172
174
186
188
188
191
184
219
302
323
306
320
330
304
280
292
252
151
103
75
2
-51
-82
-87
-68
-75
-73
-30
-42
-80
-40
30
51
-4
-49
-44
-59
-49
23
42
-28
-59
-11
9
-7
-18
49
266
323
4
-125
212
464
363
266
295
269
221
224
233
210
174
165
155
68
-139
-276
-191
-37
25
-35
-87
25
195
143
56
261
372
228
73
-110
-186
-110
-82
-42
174
328
118
21
276
257
136
590
1210
1154
377
-269
-297
-103
2
35
-30
-2
103
61
47
134
141
129
160
165
160
205
245
254
422
778
859
625
592
679
644
599
549
481
446
408
335
295
344
320
-35
-431
-377
-219
-247
-231
-195
-202
-172
-139
-132
-113
-118
-129
-92
-47
-47
-51
-47
-61
-73
-51
-66
-82
-30
11
-9
-25
-11
2
4
9
2
-28
-40
0
25
18
23
35
28
25
47
54
51
51
40
54
89
68
42
61
75
59
66
113
129
108
106
106
82
68
73
56
37
25
-30
-73
-84
-179
-169
276
941
1090
346
-472
-493
-181
-106
-87
-56
-70
-59
-44
-51
-25
21
35
47
136
273
311
287
328
368
358
349
320
217
110
115
259
523
660
495
328
285
195
96
75
94
75
51
75
82
54
66
92
84
84
106
129
179
221
172
118
146
155
118
101
70
-7
-49
-148
-141
151
169
-151
-226
-113
-94
-14
177
129
-14
191
358
186
89
146
122
80
103
70
-96
-240
-179
120
396
346
226
295
337
259
219
233
172
115
136
118
77
94
96
61
35
-25
70
615
1187
951
28
-495
-318
-129
-94
40
146
94
30
44
49
-25
-151
-191
-155
-167
-143
-44
-2
-7
4
63
134
118
82
132
167
134
108
82
18
-40
-101
-162
-184
-217
-278
-302
-245
-184
-186
-210
-207
-177
-158
-177
-160
-120
-127
-125
-89
-89
-101
-96
-77
-37
-44
-82
-40
4
-7
-18
-49
-56
-25
-37
-21
11
-7
-56
-92
-82
-61
-68
-70
-25
7
-16
-33
-18
-33
-51
-59
-63
-54
-68
-80
-35
-30
-77
-110
-162
-139
273
925
1109
509
-332
-611
-396
-269
-245
-177
-101
-49
-37
-16
9
-33
-68
-33
-37
-49
28
77
66
68
73
99
146
143
110
106
127
143
143
160
167
70
-54
-87
-92
-158
-174
-96
-77
-139
-146
-103
-87
-101
-108
-75
-77
-110
-89
-42
-18
-9
-18
-59
-68
-11
11
-9
-11
-14
-25
-7
16
-16
-33
11
-4
-103
-125
73
424
519
318
313
462
394
283
306
287
266
325
297
155
68
287
894
1288
828
-42
-346
-96
84
165
259
271
276
339
356
339
344
332
332
351
320
309
332
325
351
422
394
287
238
214
261
368
311
21
-273
-266
-37
82
14
-49
-54
-82
-82
-49
-51
-54
-25
-25
-51
-28
11
18
21
33
28
-87
-299
-278
-2
77
-73
-56
63
23
-11
37
37
16
37
47
25
21
14
-37
-44
7
0
-75
-96
-37
-42
-70
-33
-11
-16
0
-35
-40
316
925
1040
368
-370
-455
-195
-84
-40
16
37
44
49
51
63
77
94
118
125
120
148
184
202
214
214
217
257
278
259
257
250
195
136
77
7
-66
-108
-127
-155
-162
-141
-153
-184
-167
-155
-158
-127
-89
-80
-66
-40
-23
-9
0
-9
-47
-75
-40
2
-9
-4
33
51
37
18
9
7
9
14
30
44
51
16
-18
30
49
35
89
132
132
125
101
75
14
7
387
1026
1215
590
-245
-462
-217
-42
49
115
106
103
146
136
92
127
167
139
158
202
184
212
295
257
195
240
273
266
278
304
346
339
233
110
14
-56
-120
-167
-139
-101
-155
-186
-127
-99
-108
-37
56
70
75
82
51
44
49
33
37
28
14
44
56
44
77
110
77
25
16
51
80
47
16
77
141
96
-18
-87
-30
35
18
-16
-35
-61
-87
-134
-92
368
1040
1097
342
-396
-441
-143
-23
40
141
181
205
224
205
191
195
193
181
172
186
221
254
292
339
330
266
252
261
240
233
231
136
4
47
101
-120
-384
-344
-167
-153
-212
-210
-188
-195
-236
-214
-106
-73
-122
-122
-118
-165
-184
-153
-143
-169
-177
-174
-188
-207
-224
-247
-271
-243
-186
-165
-165
-167
-195
-205
-181
-181
-167
-136
-146
-141
-120
-195
-297
-73
547
988
665
-162
-571
-375
-193
-139
2
30
-77
-61
42
49
44
99
103
61
68
153
271
276
136
73
214
344
273
221
356
446
372
290
247
205
141
66
25
14
7
2
-7
-35
-92
-129
-151
-202
-226
-188
-195
-224
-181
-148
-134
-103
-84
-56
-37
-66
-101
-94
-59
-68
-87
-35
68
113
44
7
49
82
129
188
191
155
155
129
-7
28
542
1149
1095
292
-375
-337
-96
-23
49
106
101
148
186
151
141
174
193
205
214
231
252
266
254
243
269
299
297
311
313
238
184
207
177
80
-2
-103
-191
-188
-177
-224
-228
-179
-162
-160
-132
-103
-77
-68
-84
-82
-37
35
56
-51
-148
-2
221
200
108
212
363
434
467
384
304
462
495
118
-169
-103
174
1392
2352
641
-1111
-554
-54
-285
9
710
1453
2102
2017
1500
1609
2159
2725
3351
3797
4038
4200
4458
4779
4868
4996
5432
5867
6003
5786
5430
5977
7160
7261
7155
7870
8276
8231
8363
8654
8880
9126
9480
9614
9640
9749
9482
8949
8673
8503
8163
7802
7526
7325
7249
7087
6648
6237
6084
5999
5890
5881
6010
6263
6671
7443
8658
9706
10157
10565
11191
11259
10082
8427
7108
6294
6478
7920
7953
-1897
-13593
-10192
-3672
-4229
-2893
-63
-56
-344
328
427
627
1727
2338
1727
1066
1149
1470
1609
1703
1805
1810
1762
1746
1732
1718
1708
1692
1703
1739
1725
1692
1711
1753
1817
1935
2046
1977
1668
1562
1925
2230
1866
1298
1604
2119
1786
1420
1338
1073
745
547
792
1451
1784
1512
1231
1144
1012
908
875
932
1165
1267
1097
981
894
634
429
479
679
875
922
967
1083
1052
962
951
939
929
896
814
767
755
726
684
667
670
623
514
467
710
1220
1456
965
200
0
254
379
420
521
552
457
422
549
575
462
443
467
434
417
457
486
457
436
457
438
420
450
462
443
424
363
292
292
259
165
115
89
7
-120
-290
-429
-389
-280
-309
-337
-261
-236
-269
-233
-155
-132
-77
18
40
87
118
-103
-512
-788
-700
-318
231
495
-51
-472
103
585
377
238
280
198
122
139
146
120
89
61
16
-9
-21
-33
-66
-169
-158
219
677
542
-304
-910
-736
-497
-512
-431
-309
-283
-245
-181
-148
-122
-87
-54
-40
-101
-240
-292
-290
-368
-474
-729
-939
-667
-198
-221
-438
-103
172
-73
-188
-89
-108
-127
-96
-155
-226
-252
-384
-686
-962
-988
-762
-592
-842
-1038
-627
-141
-66
-318
-764
-1021
-741
-332
-245
-427
-691
-599
-457
-1031
-1449
-1123
-960
-1033
-960
-915
-946
-903
-729
-481
-585
-1050
-1149
-988
-1118
-1194
-1033
-1021
-1113
-1069
-1028
-1111
-979
-214
851
1010
40
-590
-389
-236
-290
-228
-153
-160
-259
-375
-238
-59
-141
-210
-174
-202
-257
-424
-460
-141
-56
-226
-200
-174
-238
-247
-287
-346
-363
-448
-580
-696
-816
-887
-927
-986
-953
-837
-800
-795
-717
-620
-561
-533
-528
-507
-453
-431
-438
-438
-429
-429
-424
-431
-460
-486
-523
-566
-601
-672
-672
-533
-472
-509
-483
-431
-441
-453
-405
-384
-420
-405
-379
-382
-342
-290
-304
-330
-337
-358
-368
-476
-814
-790
-56
500
351
-427
-1163
-1003
-677
-762
-703
-575
-646
-736
-1017
-1394
-1293
-1031
-1069
-1073
-934
-863
-880
-859
-790
-741
-703
-674
-646
-599
-590
-634
-644
-620
-644
-689
-729
-783
-842
-837
-738
-646
-615
-667
-748
-755
-731
-703
-649
-618
-632
-646
-632
-599
-509
-361
-309
-356
-309
-195
-89
28
33
-61
-77
-118
-448
-901
-991
-667
-172
143
23
-115
-49
-47
-89
-87
-120
-162
-108
-2
7
-33
0
44
25
-115
-689
-1475
-1578
-1253
-1248
-1062
-377
23
-328
-995
-1319
-1182
-988
-922
-859
-783
-762
-767
-733
-679
-649
-651
-639
-597
-580
-599
-575
-521
-495
-474
-436
-401
-375
-344
-306
-297
-332
-365
-382
-417
-469
-509
-542
-592
-656
-674
-646
-620
-620
-613
-590
-568
-561
-559
-554
-531
-502
-476
-460
-464
-467
-446
-405
-379
-408
-438
-389
-337
-365
-387
-332
-276
-276
-295
-297
-304
-320
-328
-295
-245
-243
-269
-278
-259
-226
-228
-278
-309
-290
-257
-238
-233
-236
-240
-304
-415
-297
221
710
549
-165
-632
-542
-375
-332
-271
-221
-202
-184
-205
-221
-174
-136
-127
-94
-73
-92
-96
-59
-7
4
7
49
49
30
61
66
47
33
-9
-54
-94
-136
-167
-205
-240
-233
-210
-231
-280
-261
-221
-257
-250
-184
-172
-198
-195
-174
-188
-233
-233
-181
-165
-184
-184
-169
-177
-191
-193
-181
-179
-191
-200
-198
-217
-252
-261
-250
-247
-243
-217
-174
-120
-61
-70
-94
-4
82
54
16
-66
-210
-30
554
899
507
-212
-531
-429
-292
-108
108
146
127
134
56
-2
35
51
21
-11
-18
23
66
49
25
44
106
160
158
143
162
169
132
84
68
25
-42
-80
-110
-136
-158
-181
-188
-177
-162
-155
-158
-158
-148
-148
-151
-136
-120
-122
-134
-129
-110
-120
-165
-174
-165
-179
-188
-191
-198
-202
-207
-214
-217
-212
-188
-129
-61
-51
-89
-118
-129
-134
-125
-120
-151
-174
-191
-254
-153
335
842
726
-18
-559
-472
-276
-240
-167
-82
-77
-89
-66
-28
-21
-30
-14
7
18
44
84
136
181
210
226
243
273
290
278
271
264
224
165
125
89
33
-25
-49
-56
-70
-75
-70
-70
-82
-89
-68
-47
-47
-59
-66
-75
-92
-77
-56
-77
-92
-66
-40
-37
-42
-37
-33
-28
-25
-21
-23
-28
-25
-11
2
21
37
11
-33
-44
-42
-40
-16
-14
-23
-28
-110
-174
110
719
1059
639
-148
-422
-210
-108
-87
-4
-2
-42
-25
-14
-30
-11
35
59
49
37
56
87
84
73
82
101
132
151
148
155
169
153
106
42
-23
-82
-134
-198
-257
-259
-257
-287
-297
-245
-193
-191
-184
-151
-136
-141
-146
-127
-101
-94
-96
-96
-96
-96
-84
-70
-63
-73
-87
-77
-73
-80
-77
-54
-44
-61
-66
-54
-44
-47
-42
-23
-33
-73
-73
-37
-28
-25
-7
4
-23
-115
-181
-40
297
594
361
-450
-823
-441
-99
28
89
75
68
92
101
99
101
96
96
120
148
155
113
54
-14
-346
-783
-705
-162
370
547
389
207
75
70
174
143
49
7
-73
-146
-184
-113
59
28
-134
-110
-56
-162
-184
-14
118
120
139
191
146
92
141
165
143
132
75
73
151
153
127
169
167
108
84
92
87
66
44
42
54
47
35
54
82
73
59
77
82
54
14
0
40
68
30
-2
-2
-30
-139
-162
165
750
1047
559
-299
-545
-276
-198
-228
-141
-92
-108
-113
-118
-113
-89
-75
-59
-11
30
44
63
89
115
125
103
99
136
160
151
158
167
134
82
30
-40
-103
-125
-139
-174
-200
-200
-205
-210
-200
-195
-193
-205
-224
-217
-179
-151
-146
-129
-96
-61
-37
-33
-70
-120
-127
-125
-110
-70
-66
-80
-106
-165
-186
-141
-113
-151
-250
-325
-311
-285
-328
-363
-358
-318
-240
-205
-254
-365
-450
-417
-337
-375
-512
-538
-415
-337
-337
-337
-358
-403
-479
-488
-120
556
932
590
-110
-401
-212
-94
-118
-59
25
73
115
125
103
99
110
108
96
118
158
167
169
198
217
217
238
261
257
254
266
266
238
184
122
75
23
-30
-49
-56
-82
-94
-75
-59
-51
-47
-51
-51
-54
-66
-66
-61
-59
-59
-56
-59
-61
-49
-37
-44
-44
-33
-21
-25
-40
-47
-51
-54
-47
-37
-35
-44
-68
-94
-108
-115
-127
-125
-118
-113
-106
-94
-99
-108
-106
-92
-80
-75
-73
-47
-14
-28
-63
-70
-63
-63
-63
-56
-61
-80
-143
-214
-25
523
991
774
-14
-474
-318
-167
-198
-169
-103
-89
-84
-66
-47
-35
-25
-9
16
35
42
47
59
70
63
61
87
101
87
89
113
127
118
70
11
-33
-84
-151
-184
-191
-210
-212
-184
-167
-172
-165
-153
-160
-162
-143
-125
-127
-132
-115
-92
-87
-82
-66
-66
-77
-82
-75
-68
-68
-82
-84
-75
-73
-68
-51
-59
-77
-80
-84
-92
-82
-70
-63
-70
-82
-66
-42
-49
-51
-35
-28
-30
-30
-33
-25
-14
-16
-14
0
-11
-51
-75
-66
-56
-68
-82
-73
-61
-103
-181
-68
405
958
984
306
-330
-342
-136
-92
-84
-56
-42
-30
-35
-59
-4
92
54
-37
-28
37
99
132
141
141
146
198
269
287
261
254
259
217
146
101
66
11
-40
-70
-75
-59
-56
-77
-101
-106
-70
-66
-106
-115
-73
-59
-101
-127
-106
-89
-87
-66
-44
-23
-7
-4
2
16
4
-37
-51
-35
-68
-139
-143
-125
-153
-151
-89
-35
-35
-51
-44
-56
-115
-148
-108
-75
-99
-82
-11
-28
-125
-158
-134
-120
-89
-44
-54
-127
-198
-280
-372
-396
-365
-346
-292
-195
-51
342
908
1003
311
-405
-443
-210
-160
-120
-51
-56
-54
-33
-49
-82
-49
11
-4
-44
-14
49
87
82
77
96
110
120
141
155
155
118
73
75
63
-14
-75
-103
-153
-172
-148
-167
-212
-200
-160
-139
-125
-115
-113
-120
-125
-99
-70
-82
-96
-84
-68
-61
-61
-59
-54
-56
-59
-47
-30
-30
-47
-54
-51
-49
-44
-40
-28
-14
-18
-33
-37
-44
-37
-23
-18
-18
-18
-18
-16
-16
-11
7
11
-14
-51
-54
-44
-68
-94
-94
-96
-160
-212
23
601
993
656
-127
-500
-354
-240
-221
-169
-146
-127
-89
-75
-77
-63
-54
-56
-49
-28
-11
11
44
84
127
153
172
207
238
231
217
226
212
148
96
61
7
-44
-73
-99
-110
-106
-113
-127
-125
-120
-118
-106
-94
-94
-96
-82
-66
-73
-77
-66
-70
-84
-92
-96
-96
-92
-99
-101
-84
-66
-66
-68
-73
-80
-70
-51
-51
-66
-70
-84
-167
-271
-257
-198
-217
-224
-188
-191
-210
-193
-153
-132
-115
-106
-118
-118
-108
-113
-108
-99
-108
-153
-243
-200
228
851
1033
405
-375
-488
-257
-198
-153
-47
-30
-70
-54
-18
-11
-2
16
35
61
82
87
99
125
143
141
148
188
214
212
221
219
186
165
146
87
18
-14
-47
-94
-115
-110
-101
-94
-96
-89
-80
-73
-61
-56
-51
-44
-49
-47
-11
-4
-42
-49
-21
-18
-33
-23
-4
-2
0
-4
-21
-47
-68
-47
-28
-59
-84
-77
-75
-92
-75
-54
-73
-75
-30
4
-4
-40
-61
-47
-35
-47
-42
-16
-33
-122
-200
-7
540
1019
821
11
-490
-349
-162
-165
-153
-122
-122
-92
-40
-35
-82
-110
-77
-30
-7
9
18
37
68
89
113
141
160
167
177
184
181
153
106
61
18
-40
-106
-134
-143
-153
-160
-167
-158
-148
-146
-125
-96
-89
-84
-70
-63
-63
-51
-28
-21
-21
-11
-2
0
-7
-9
-18
-59
-113
-127
-96
-82
-94
-101
-87
-73
-80
-89
-94
-96
-99
-87
-66
-44
-30
-23
-49
-92
-82
-42
-40
-56
-56
-54
-80
-162
-179
141
748
1033
531
-252
-453
-238
-162
-134
-59
-54
-70
-59
-82
-136
-132
-84
-73
-77
-56
-16
11
23
40
61
59
56
92
120
120
129
136
110
63
11
-47
-106
-143
-155
-153
-155
-151
-120
-77
-59
-47
-23
-4
4
14
14
7
9
25
30
28
30
23
23
35
21
11
28
33
23
25
25
16
25
42
40
33
35
33
33
42
44
33
42
80
92
56
25
23
7
-18
4
35
18
-28
-113
-103
250
823
991
408
-295
-377
-141
-70
-56
-18
-18
-11
7
18
40
70
84
80
89
110
120
115
120
136
146
172
202
200
193
214
228
195
158
136
87
18
-25
-40
-51
-77
-94
-77
-68
-73
-59
-42
-42
-35
-21
-18
-18
-14
-4
7
-2
-16
4
33
25
14
21
30
7
-40
-44
-25
-56
-89
-61
-40
-56
-47
-30
-37
-42
-42
-51
-37
-9
-4
-25
-56
-63
-42
-28
-28
-30
-42
-94
-146
28
538
955
712
-25
-417
-245
-84
-70
-9
37
28
37
66
68
56
59
80
96
96
101
125
146
146
151
191
231
226
219
236
250
240
221
186
125
54
2
-30
-73
-132
-162
-151
-146
-162
-139
-94
-92
-103
-75
-35
-35
-35
-18
-21
-25
-16
-14
-16
-25
-25
-11
-9
-23
-9
11
2
-7
-2
2
-9
-40
-61
-70
-82
-99
-127
-143
-179
-453
-823
-476
210
129
-115
44
44
-174
-271
-292
-365
-212
337
750
464
-252
-587
-382
-228
-228
-118
-54
-129
-106
23
122
188
212
195
195
193
165
146
181
205
165
169
250
261
200
184
191
127
-9
11
155
40
-160
-162
-160
-238
-269
-238
-217
-200
-179
-202
-198
-122
-113
-146
-143
-155
-184
-195
-276
-389
-266
-30
-108
-200
-21
-9
-141
-115
-96
-139
-120
-125
-158
-139
-143
-165
-132
-87
-92
-134
-146
-106
-94
-122
-110
-70
-75
-143
-219
-80
420
922
816
70
-497
-413
-210
-212
-167
-77
-77
-73
-21
-9
-16
-25
-40
2
70
59
40
77
101
75
68
108
134
134
146
146
136
143
120
54
2
-28
-54
-89
-118
-115
-101
-108
-106
-108
-103
-82
-82
-92
-66
-35
-47
-66
-35
-21
-49
-59
-30
-18
-33
-14
21
2
-42
-51
-51
-51
-33
-11
-2
7
2
-18
-11
-7
-66
-103
-61
-33
-44
-21
-7
-51
-132
-198
-16
528
1012
842
77
-413
-283
-106
-101
-87
-59
-28
0
16
18
7
-7
-25
-4
84
139
125
139
195
238
266
302
323
328
351
339
217
155
245
245
153
113
66
4
4
11
-18
-28
-18
-33
-37
-21
-4
9
21
28
23
0
-23
-18
-7
-18
-28
-21
-9
-2
2
21
21
-4
-18
-11
11
18
-7
7
9
-35
-42
-33
-37
-7
30
-18
-96
-99
-92
-113
-101
-96
-141
-169
-261
-375
-75
606
953
472
-346
-578
-330
-238
-240
-155
-87
-75
-63
-42
-49
-63
-30
11
25
40
63
70
73
106
148
179
191
155
146
193
172
108
99
96
44
-30
-49
-42
-77
-87
-49
-23
-11
-21
-40
-40
-14
2
-18
-2
37
25
7
11
11
11
16
21
23
14
4
-2
-11
-14
-25
-61
-94
-80
-14
2
-42
-35
-21
-47
-28
-4
-35
-40
4
47
49
14
-30
-84
-441
-1121
-1321
-974
-873
-953
-851
-455
245
783
1062
1158
620
-169
-287
-9
44
18
84
87
63
122
153
113
101
136
148
127
134
188
221
210
219
250
259
276
292
290
304
285
226
210
200
127
47
35
28
-21
-42
-33
-63
-113
-94
-47
-61
-70
-49
-49
-51
-49
-44
-28
-28
-33
-7
-9
-30
-30
-61
-80
-33
-30
-73
-82
-99
-122
-118
-134
-139
-75
-56
-99
-87
-18
7
-21
-2
30
-18
-44
-122
-302
-193
77
42
-54
-25
-68
-92
-47
-49
-49
-28
-61
-129
-188
-158
143
703
1000
519
-457
-977
-528
44
-4
-94
47
54
14
82
103
73
92
92
63
80
108
115
103
96
148
207
200
172
181
193
184
153
122
120
89
11
-49
-94
-139
-160
-169
-188
-167
-108
-101
-132
-132
-103
-92
-110
-122
-99
-73
-70
-66
-66
-66
-77
-96
-94
-75
-66
-75
-94
-94
-68
-61
-84
-84
-77
-68
-42
-40
-61
-61
-56
-75
-101
-120
-120
-70
-37
-68
-56
-35
-92
-110
-54
-51
-96
-92
-77
-96
-148
-231
-75
462
920
715
-35
-509
-398
-247
-228
-122
-42
-68
-56
-7
-11
-28
14
35
14
68
132
125
115
122
132
186
264
280
278
287
273
264
243
181
118
84
73
25
-9
-14
-226
-830
-1156
-453
210
-73
-250
-21
37
40
70
35
7
47
108
89
23
25
30
-2
35
66
2
-28
0
-2
-25
-49
-59
-25
-18
-113
-174
-136
-136
-158
-146
-186
-221
-186
-184
-188
-146
-132
-139
-127
-141
-172
-165
-141
-115
-84
-84
-127
-202
-243
-9
578
1031
712
-143
-512
-271
-153
-195
-101
-11
-30
-28
14
30
16
14
42
44
33
101
162
134
122
155
158
184
238
238
236
228
169
136
127
82
2
-42
-54
-122
-167
-148
-146
-141
-160
-181
-143
-127
-136
-96
-77
-146
-202
-148
-87
-120
-127
-70
-44
-51
-61
-80
-80
-73
-84
-80
-59
-59
-106
-132
-92
-68
-89
-108
-96
-47
-18
-40
-56
-47
-51
-94
-125
-96
-16
28
-28
-94
-167
-245
-217
-136
-113
-106
-115
-195
-313
-261
193
847
991
302
-464
-554
-363
-295
-207
-139
-158
-160
-108
-49
-56
-89
-89
-51
-2
33
40
54
66
42
18
37
136
318
446
450
410
342
292
271
169
70
82
75
9
-4
-2
-25
-14
11
-30
-82
-14
73
42
0
14
7
-25
0
47
14
-16
7
7
2
-7
-37
-42
-21
-9
-4
-9
-11
-11
-35
-73
-73
-37
-30
-70
-110
-82
-47
-63
-61
-28
-33
-66
-61
-25
-33
-68
-59
-14
7
-30
-75
-82
-73
-106
-221
-370
-424
-422
-486
-526
-191
531
1019
738
-11
-394
-247
-92
-30
89
169
167
177
193
177
160
169
167
167
174
174
181
200
214
238
257
245
261
304
309
290
295
292
245
184
127
63
-11
-61
-73
-94
-106
-66
-47
-73
-63
-16
-18
-56
-42
-33
-70
-82
-61
-37
-21
-16
-33
-68
-92
-96
-96
-89
-113
-132
-96
-82
-125
-151
-146
-148
-151
-134
-103
-75
-66
-63
-51
-25
-4
-44
-146
-233
-226
-115
-87
-266
-630
-882
-585
-219
-342
-457
-354
-162
332
887
800
49
-450
-313
-146
-184
-162
-99
-110
-108
-44
-40
-94
-87
-56
-103
-165
-146
-120
-167
-240
-240
-40
238
287
120
-21
139
415
320
89
68
42
-75
-89
-54
-103
-143
-127
-162
-210
-184
-153
-158
-139
-108
-120
-155
-174
-162
-139
-158
-179
-146
-129
-198
-252
-207
-172
-184
-174
-155
-151
-148
-139
-122
-106
-99
-92
-80
-80
-82
-73
-51
-37
-44
-47
-23
-14
-42
-49
-21
-18
-40
-40
-33
-49
-132
-193
56
651
1062
719
-89
-453
-247
-106
-108
-42
-11
-37
-30
-2
30
-94
-311
-134
224
188
92
186
214
191
228
261
269
295
306
290
264
231
181
101
7
-66
-106
-108
-143
-330
-608
-712
-592
-495
-476
-417
-188
108
165
77
96
101
40
35
61
59
63
70
68
44
30
56
54
25
37
21
-61
-134
-148
-143
-172
-174
-160
-172
-155
-94
-66
-73
-66
-61
-75
-94
-129
-143
-103
-51
-33
-42
-56
-54
-80
-155
-42
483
1076
1024
221
-401
-309
-106
-94
-14
77
56
42
101
165
177
158
153
151
141
172
193
155
99
37
11
35
47
49
80
113
113
82
33
-25
-68
-96
-132
-172
-221
-273
-287
-283
-297
-351
-479
-564
-427
-269
-346
-479
-446
-379
-379
-363
-320
-302
-311
-330
-328
-290
-269
-287
-280
-233
-210
-205
-181
-167
-184
-202
-191
-153
-129
-129
-115
-87
-68
-59
-61
-70
-80
-94
-75
-33
-51
-106
-92
-40
-63
-136
-162
-151
-153
-148
-122
-115
-143
-231
-266
28
653
1007
483
-464
-752
-469
-358
-351
-259
-228
-233
-193
-160
-134
-70
-23
-33
-37
2
28
30
61
101
122
148
212
295
335
323
316
318
273
198
151
94
21
-11
-23
-42
-42
-23
-23
-37
-44
-37
-18
-2
0
11
40
42
30
25
28
30
30
21
16
2
-37
-47
-25
-49
-92
-75
-51
-63
-63
-42
-23
-9
14
33
23
18
30
40
63
87
80
80
89
80
66
75
96
118
129
108
70
61
106
148
129
75
37
25
-14
-132
-56
467
1033
962
236
-313
-233
-75
-75
4
75
51
30
14
-7
63
193
226
191
186
198
195
200
224
252
273
287
285
276
285
295
278
243
205
155
99
56
9
-68
-110
-99
-106
-127
-113
-101
-125
-143
-127
-120
-141
-134
-129
-290
-516
-370
-4
56
-73
-89
-61
-101
-158
-141
-42
42
49
30
18
-4
-28
-47
-92
-172
-231
-214
-193
-214
-219
-198
-181
-169
-146
-120
-120
-151
-174
-177
-184
-191
-184
-174
-184
-238
-339
-259
226
816
847
129
-523
-495
-266
-228
-191
-151
-167
-148
-103
-89
-75
-51
-30
-14
11
33
49
59
77
115
148
165
181
207
214
205
200
179
118
42
-16
-70
-122
-148
-151
-148
-151
-151
-143
-139
-141
-132
-108
-87
-77
-75
-66
-54
-47
-49
-42
-23
-21
-47
-66
-49
-30
-35
-44
-40
-35
-30
-28
-25
-14
-9
-9
-2
11
23
16
11
23
37
42
40
35
44
63
61
44
28
-4
-11
18
28
21
28
16
-11
-66
-115
96
693
1180
894
37
-382
-172
-30
-51
11
56
49
75
103
92
75
87
118
139
143
153
174
191
205
226
257
276
264
250
278
335
368
318
177
59
11
-25
-63
-214
-396
-346
-226
-122
89
188
92
77
158
202
231
233
200
188
202
207
207
200
174
143
129
115
99
110
143
155
151
158
165
165
174
184
181
184
184
177
184
198
186
179
221
266
247
221
214
198
174
184
231
261
245
217
210
200
172
155
160
160
146
77
25
283
887
1288
903
63
-266
-44
77
70
125
158
148
160
177
169
158
155
165
181
193
207
226
240
271
297
278
245
219
195
221
257
210
118
70
51
-7
-80
-141
-292
-535
-651
-611
-611
-627
-566
-476
-398
-313
-243
-205
-181
-172
-155
-125
-115
-101
-96
-151
-179
-132
-87
-92
-148
-167
-80
-21
-49
-99
-120
-75
-47
-59
-49
-51
-63
-51
-33
-21
-30
-49
-40
-35
-56
-63
-37
-14
-2
40
108
120
68
44
70
84
77
92
113
101
75
18
-77
35
549
1078
962
186
-368
-259
-51
-28
16
61
59
63
75
77
101
129
146
160
162
146
134
120
108
115
127
141
191
245
280
311
302
238
174
136
87
18
-35
-70
-84
-89
-92
-80
-63
-63
-54
-35
-40
-49
-14
56
118
122
103
113
127
115
110
110
103
92
61
18
9
16
14
14
-7
-30
-21
7
73
174
219
202
188
184
177
169
153
115
96
110
120
96
63
56
25
-33
-18
28
28
40
56
4
-37
-28
-35
-54
-21
30
16
-80
-94
240
826
1066
556
-191
-396
-250
-290
-358
-297
-266
-143
110
165
61
-11
-96
-40
158
179
44
-68
-125
-118
-84
-61
-42
-14
14
35
33
33
35
37
82
115
49
-188
-542
-660
-568
-582
-632
-575
-528
-547
-486
-207
87
66
-77
-61
-16
-4
47
87
75
75
96
82
47
47
47
21
9
23
33
44
59
47
18
11
18
7
2
18
18
16
33
44
21
7
40
77
92
108
99
37
18
59
77
80
66
33
16
-28
-101
77
630
1059
788
21
-384
-231
-118
-146
-56
21
-4
-9
25
21
0
9
37
47
37
35
59
70
54
70
122
143
141
162
193
198
174
148
113
61
11
-25
-73
-118
-127
-120
-106
-94
-94
-84
-68
-68
-59
-35
-30
-40
-30
-4
11
9
11
18
23
30
37
37
33
28
23
33
40
30
28
37
28
9
21
54
70
61
49
68
68
25
-2
-9
-51
-113
-118
-37
61
80
7
-49
-89
-195
-266
-252
-304
-382
-181
332
722
490
-221
-705
-729
-651
-554
-431
-382
-365
-344
-313
-191
-44
-51
-125
-87
-103
-236
-261
-169
-92
70
332
472
387
304
389
455
417
365
287
184
120
42
-143
-372
-474
-453
-436
-408
-361
-358
-264
-37
-16
-191
-202
-148
-191
-200
-158
-155
-177
-179
-141
-51
94
250
295
257
236
103
-146
-285
-273
-254
-254
-231
-210
-219
-233
-212
-193
-205
-202
-174
-160
-184
-188
-143
-108
-113
-129
-141
-132
-118
-110
-101
-101
-115
-153
-238
-207
224
870
1043
365
-436
-500
-228
-212
-231
-148
-108
-113
-101
-87
-68
-56
-61
-51
-35
-33
-21
9
30
49
66
66
73
89
106
127
143
134
96
40
-16
-63
-101
-129
-146
-143
-120
-92
-77
-77
-80
-73
-63
-66
-66
-68
-125
-193
-181
-141
-153
-160
-127
-108
-106
-94
-82
-73
-70
-73
-59
-42
-40
-40
-30
-25
-28
-23
-11
-2
-7
-18
-25
-23
-21
-16
2
16
33
63
54
11
4
30
44
40
23
2
-25
-106
-179
54
674
1142
828
-28
-431
-228
-92
-87
-9
28
11
33
49
35
47
68
61
56
66
77
101
120
141
174
205
212
214
221
217
188
148
125
87
37
28
11
-68
-143
-148
-139
-129
-42
70
37
-59
-40
54
174
304
339
292
257
207
122
21
7
158
278
259
233
141
-106
-261
-210
-148
-99
44
92
-92
-188
-99
-61
-68
-16
30
42
33
-4
-63
-106
-80
14
80
122
200
264
193
33
-56
-103
-129
-82
63
245
332
561
1019
1062
363
-328
-379
-186
-125
-80
-30
-14
35
110
169
186
82
-101
-167
-118
-103
-108
-75
-47
-42
-18
30
61
63
66
80
87
73
33
-21
-63
-99
-129
-127
-110
-120
-143
-160
-160
-151
-127
-80
-35
33
134
129
2
-77
-80
-75
-73
-66
-47
-30
-47
-63
-44
-25
-30
-35
-30
-23
-21
-23
-18
-9
-14
-14
-7
-2
0
-4
-2
-4
-30
-37
-16
-42
-115
-122
-70
-59
-73
-63
-49
-63
-136
-200
18
590
1028
752
-37
-453
-280
-134
-139
-75
-18
-18
4
25
18
25
51
68
75
87
101
120
143
165
191
214
236
261
278
273
261
240
191
125
68
21
-30
-80
-106
-115
-125
-129
-118
-103
-101
-106
-101
-94
-82
-73
-89
-92
-75
-75
-70
-44
-51
-92
-92
-63
-61
-80
-70
-40
-33
-40
-30
-30
-42
-35
-9
-4
-42
-75
-56
-23
-14
-4
14
11
9
42
68
47
21
-2
-61
-101
-80
-49
-47
-11
56
96
181
302
266
292
752
1378
1475
757
-84
-335
-320
-382
-318
-205
-184
-169
-139
-125
-115
-103
-94
-89
-75
-47
-11
16
66
129
136
115
143
188
198
188
179
165
106
4
-54
-73
-155
-257
-285
-309
-354
-349
-311
-295
-287
-299
-309
-290
-283
-273
-240
-217
-207
-193
-172
-160
-148
-132
-113
-113
-115
-101
-84
-80
-77
-68
-61
-59
-51
-40
-30
-33
-37
-28
-4
2
-2
4
14
14
14
21
23
16
9
16
33
49
70
94
92
61
35
42
56
51
47
59
59
33
-44
-68
252
866
1172
658
-212
-448
-179
-89
-84
-2
7
-16
4
23
40
66
80
82
99
122
136
153
186
210
221
250
285
299
309
313
306
287
254
193
122
66
14
-23
-40
-44
-51
-63
-80
-75
-59
-51
-40
-30
-30
-21
-2
4
7
18
28
23
30
49
59
49
44
51
59
56
59
68
70
61
42
28
33
37
30
28
21
16
28
35
14
-40
-77
-56
-47
-87
-94
-59
-47
-56
-47
-28
-25
-25
-4
30
56
59
28
0
7
30
37
37
28
25
16
-75
-155
106
736
1156
792
-49
-405
-191
-73
-82
0
47
33
42
66
77
84
96
113
122
115
120
139
146
158
181
202
219
219
207
221
238
207
169
151
96
23
-7
-35
-84
-108
-96
-96
-106
-101
-87
-82
-94
-110
-94
-77
-80
-70
-49
-42
-37
-30
-21
-11
-7
-4
-2
0
2
-11
-25
-18
-9
-9
-4
2
2
4
16
14
2
7
28
33
21
18
30
35
35
40
47
33
18
35
51
44
44
61
82
56
-14
-51
-40
-35
-33
-14
-9
-25
-59
-146
-127
280
906
1069
436
-316
-417
-165
-94
-82
-9
4
-11
-4
11
23
23
21
35
56
66
80
101
106
80
73
115
151
153
167
186
179
155
134
103
42
-23
-68
-87
-101
-127
-146
-136
-122
-125
-118
-103
-103
-103
-84
-68
-80
-113
-115
-94
-106
-110
-75
-63
-96
-125
-115
-92
-84
-80
-70
-61
-59
-56
-44
-33
-40
-42
-25
-14
-14
-9
4
7
4
14
25
7
-37
-59
-49
-37
-30
-21
-2
-4
-61
-106
-77
-49
-63
-56
-30
-30
-51
-122
-162
132
757
1116
679
-158
-462
-231
-118
-125
-42
-2
-18
-2
25
33
47
63
59
47
44
51
80
110
134
158
191
221
240
250
254
259
250
214
174
122
59
4
-21
-42
-59
-59
-59
-59
-51
-40
-21
-14
-23
-18
-4
-7
-16
-7
9
9
-23
-44
-18
-2
-16
-11
11
14
7
11
16
18
18
23
35
37
28
28
37
42
44
49
47
30
25
33
33
16
4
0
-18
-35
-21
4
21
33
49
42
7
-4
9
18
25
30
21
2
-73
-165
33
632
1137
889
28
-438
-250
-89
-94
-25
18
-4
9
37
44
61
77
82
94
103
110
134
132
84
99
160
181
184
207
233
236
233
219
177
113
51
11
-16
-47
-68
-77
-70
-66
-66
-54
-44
-49
-44
-42
-54
-51
-30
-25
-23
-16
-2
7
9
14
30
35
25
30
40
37
35
42
40
25
14
16
28
33
28
21
9
0
4
9
18
30
28
23
28
33
35
40
40
35
21
16
30
40
37
42
21
-21
-23
2
-4
-33
-44
-42
-61
-146
-169
160
783
1099
608
-221
-457
-205
-106
-108
-59
-40
-30
-4
7
16
35
61
75
84
101
122
141
160
186
212
240
264
276
295
309
299
280
259
205
134
80
35
-7
-35
-42
-42
-49
-51
-37
-23
-23
-16
-4
-2
-2
9
23
28
28
35
42
42
37
44
49
33
16
23
33
30
14
4
14
4
-42
-54
-30
-28
-40
-49
-59
-56
-49
-44
-30
-28
-42
-42
-49
-70
-70
-51
-40
-23
-2
4
-14
-54
-63
-23
-2
-21
-35
-28
-35
-101
-186
-4
554
1010
762
-14
-467
-328
-155
-136
-77
-21
-18
-4
18
28
37
54
59
56
70
103
127
136
151
177
200
224
233
228
226
226
224
202
155
96
37
-28
-106
-177
-210
-207
-210
-214
-200
-186
-181
-174
-160
-158
-153
-132
-118
-113
-108
-101
-96
-89
-80
-73
-82
-99
-94
-77
-73
-77
-70
-61
-59
-56
-47
-37
-35
-47
-42
-14
-4
-16
-14
-2
0
-11
-18
-16
-11
-14
2
25
2
-44
-40
-18
-30
-37
-21
-14
-37
-122
-174
101
715
1080
682
-118
-450
-264
-129
-103
-30
16
18
28
11
-7
23
56
56
66
96
118
132
158
188
210
226
245
266
280
283
283
273
245
193
134
89
40
-9
-30
-33
-47
-54
-40
-25
-28
-28
-21
-14
-7
0
16
21
14
21
40
47
40
28
21
23
25
30
44
47
33
30
44
54
47
23
14
16
2
-4
4
4
0
9
16
9
4
11
23
16
2
11
16
-44
-103
-87
-80
-101
-103
-99
-106
-167
-254
-113
434
991
887
94
-474
-365
-169
-162
-106
-37
-30
-14
4
0
7
28
44
56
75
94
103
120
143
158
165
184
205
217
219
221
219
191
139
80
25
-25
-73
-110
-127
-139
-155
-162
-148
-134
-136
-127
-106
-92
-82
-70
-59
-49
-42
-33
-16
-14
-23
-16
2
-11
-44
-44
-25
-23
-21
-2
2
-4
-4
4
18
25
23
25
28
23
16
23
33
21
16
30
33
30
44
68
87
82
47
18
28
37
33
44
56
51
23
-75
-132
181
828
1177
686
-169
-415
-162
-94
-113
-23
14
-4
11
37
44
59
80
89
99
118
134
141
151
172
200
243
271
285
297
302
297
280
259
224
153
51
-18
-30
-54
-110
-125
-106
-99
-96
-77
-59
-54
-51
-37
-16
-11
-7
0
-9
-16
-2
16
23
18
16
28
40
44
49
47
44
47
49
56
61
56
44
30
0
-35
-37
-11
-14
-33
-23
-4
-9
-14
-7
4
-4
-16
-2
4
4
23
51
73
61
18
0
23
33
23
33
35
7
-51
-143
-70
398
1010
1071
332
-403
-410
-158
-129
-113
-28
-4
-16
-7
9
25
44
54
66
94
113
120
139
174
200
217
243
269
278
287
302
306
283
231
169
101
42
0
-30
-56
-70
-66
-51
-44
-42
-49
-47
-25
-14
-9
0
2
4
18
33
35
35
40
42
44
42
40
51
68
66
56
56
54
49
59
70
73
77
89
92
61
18
4
14
18
28
51
66
59
51
42
16
-2
16
59
80
96
122
120
66
0
-28
-23
-11
-14
-44
-73
-106
-198
-202
165
783
1014
474
-283
-453
-214
-118
-87
-11
9
9
49
94
110
92
61
56
77
110
139
158
202
287
328
299
283
297
297
283
259
233
202
151
92
37
-18
-61
-70
-47
-21
-18
-30
-2
23
-28
-82
-82
-136
-200
-113
2
-4
-61
-92
-49
49
73
42
61
70
49
56
70
42
16
14
9
-9
-18
-9
-9
-23
-21
-11
-14
-16
-21
-33
-28
-16
-14
-9
2
16
37
47
21
-18
-16
11
18
18
25
28
7
-68
-125
106
672
1078
764
-49
-460
-269
-113
-108
-33
9
-7
25
61
51
61
80
75
87
122
118
87
106
151
174
191
224
243
231
219
226
224
193
139
70
7
-44
-80
-92
-101
-115
-118
-96
-77
-73
-66
-56
-44
-35
-25
-7
2
2
2
21
37
35
30
44
49
47
56
63
54
40
44
54
30
16
44
54
33
25
47
61
56
49
56
66
66
70
66
49
42
49
56
54
56
66
80
89
59
-4
-28
-21
-23
-23
-9
-11
-28
-59
-134
-118
259
889
1118
507
-306
-434
-167
-106
-103
-23
4
-7
11
42
51
54
66
89
113
122
132
155
177
191
226
264
283
280
280
292
295
269
221
160
92
11
-47
-61
-73
-94
-96
-87
-77
-63
-54
-51
-42
-35
-37
-28
-21
-28
-21
-7
2
11
9
-16
-30
-16
-16
-18
-9
-18
-21
-9
-42
-92
-94
-94
-132
-148
-127
-122
-143
-160
-162
-155
-134
-115
-103
-96
-103
-108
-94
-89
-99
-99
-82
-66
-51
-28
-23
-61
-92
-70
-35
-30
-40
-33
-23
-44
-115
-153
89
677
1142
873
23
-413
-207
-42
-40
37
96
89
106
136
141
146
162
172
162
155
167
191
214
243
269
283
304
335
351
354
356
346
299
221
165
127
66
11
-9
-11
-16
-16
-7
-2
0
11
25
30
33
40
54
61
51
49
61
61
59
73
84
82
77
87
92
89
87
94
96
87
77
80
75
66
59
63
68
66
63
66
63
54
54
61
59
54
40
9
-7
0
2
-2
4
-2
-14
-16
-47
-92
-77
-56
-80
-68
-42
-136
-254
-240
-179
-169
-191
-200
21
592
1052
776
-68
-552
-427
-285
-266
-177
-139
-181
-165
-132
-143
-146
-127
-122
-110
-82
-51
-25
0
37
77
99
106
129
162
186
195
195
188
148
77
21
-30
-122
-202
-212
-200
-172
-167
-236
-269
-243
-233
-228
-212
-210
-210
-184
-167
-174
-174
-153
-143
-151
-134
-113
-120
-136
-136
-125
-118
-115
-115
-108
-118
-151
-165
-146
-160
-202
-198
-162
-174
-207
-191
-162
-162
-158
-139
-139
-146
-143
-139
-120
-99
-77
-66
-94
-134
-122
-92
-89
-94
-75
-30
14
-28
-132
7
554
1026
797
11
-450
-323
-162
-136
-56
-4
-14
7
30
30
42
61
70
89
118
146
174
198
224
254
273
283
309
337
344
332
320
295
247
184
122
68
7
-30
-30
-28
-42
-47
-30
-21
-21
-11
4
7
0
7
18
25
35
42
42
37
28
28
33
23
7
16
21
-21
-77
-87
-73
-75
-73
-49
-54
-92
-99
-70
-56
-59
-44
-33
-40
-35
-14
4
16
16
16
14
-25
-96
-108
-73
-82
-122
-120
-94
-129
-254
-306
9
634
984
547
-276
-554
-299
-174
-172
-84
-40
-54
-37
-33
-59
-44
-14
-21
-21
18
47
56
75
110
139
160
191
217
226
224
226
214
167
103
49
-9
-68
-103
-129
-162
-186
-181
-167
-153
-139
-127
-120
-110
-96
-82
-68
-51
-44
-40
-23
-7
-2
2
18
25
21
23
37
44
40
28
30
40
44
44
37
28
35
42
40
49
51
47
54
61
54
54
63
68
73
80
89
101
120
122
89
33
-9
-7
4
-4
-11
0
-11
-108
-224
-42
549
1083
882
11
-552
-427
-247
-221
-148
-113
-139
-115
-87
-106
-101
-51
-25
-23
2
42
77
110
148
174
179
181
198
212
212
207
205
193
165
120
73
23
-21
-47
-56
-56
-56
-56
-42
-23
-16
-11
0
11
18
25
40
59
61
59
70
80
77
82
82
51
16
18
42
37
28
33
30
23
18
4
0
7
4
11
23
0
-30
-25
-7
-30
-54
-33
-14
-33
-28
2
16
14
18
25
9
-42
-70
-47
-35
-47
-40
-25
-28
-54
-127
-179
63
665
1121
804
-66
-481
-257
-99
-106
-37
11
-7
-2
25
40
49
56
56
68
92
103
103
120
151
174
202
236
254
257
259
271
276
247
191
136
82
23
-14
-23
-40
-75
-77
-49
-63
-108
-99
-68
-73
-87
-61
-33
-28
-25
-23
-16
-2
7
14
23
25
30
49
59
56
59
63
63
56
49
54
59
51
49
63
70
61
56
68
80
80
77
82
87
82
77
68
59
66
73
68
66
70
84
89
47
-2
9
23
-2
-11
7
4
-40
-122
-186
0
545
1054
889
80
-431
-269
-75
-80
-21
49
37
28
49
61
75
96
110
122
141
158
167
191
224
245
261
285
309
325
332
337
337
311
269
226
174
118
68
33
7
-2
-4
2
9
0
0
18
35
30
30
42
35
-2
-21
4
18
7
18
30
9
-11
7
21
14
14
28
21
2
-2
9
14
-4
-30
-30
-21
-23
-23
-11
-4
-9
-14
2
23
23
18
23
30
28
30
49
73
70
37
7
0
2
-7
-16
-9
-2
0
-40
-132
-70
384
977
1024
304
-375
-356
-127
-103
-54
30
30
21
44
59
68
77
82
94
103
113
122
127
134
155
186
210
228
240
247
252
245
233
210
162
99
40
-16
-82
-143
-153
-129
-127
-136
-115
-87
-87
-89
-73
-61
-59
-51
-35
-21
-16
-18
-11
2
2
2
14
16
11
14
23
28
23
21
18
7
-2
0
-4
-18
-16
-7
2
9
2
-7
4
11
4
7
21
23
21
14
18
30
2
-44
-40
-21
-37
-44
-42
-47
-54
-101
-188
-56
476
986
816
33
-472
-332
-143
-136
-70
4
-4
0
30
33
21
7
9
40
63
66
84
120
146
162
188
221
240
245
257
269
259
224
174
127
56
-25
-73
-99
-127
-134
-122
-120
-127
-122
-101
-89
-94
-87
-68
-61
-61
-63
-61
-47
-37
-35
-23
-18
-23
-21
-11
-9
-18
-28
-33
-23
-21
-23
-18
-14
-16
-16
-25
-37
-35
-21
-9
0
14
16
-11
-44
-35
-9
-18
-56
-75
-54
-56
-139
-193
61
649
1014
630
-184
-535
-325
-181
-172
-82
-33
-44
-23
2
7
18
40
51
56
75
103
125
141
169
200
214
219
233
257
264
252
243
212
153
94
42
-18
-77
-99
-99
-101
-101
-96
-84
-68
-61
-56
-44
-37
-35
-23
-9
0
2
2
11
18
23
33
40
35
35
47
56
61
73
101
129
118
94
94
87
30
-14
4
30
21
9
4
-11
-47
-61
-33
-16
-25
-14
16
21
-21
-122
-158
158
774
1085
585
-243
-469
-219
-115
-106
-40
-30
-47
-35
-23
-7
11
16
18
44
73
84
101
129
153
169
195
226
250
254
254
259
236
167
94
42
-9
-63
-87
-94
-99
-89
-59
-25
-16
-30
-73
-115
-127
-132
-125
-103
-99
-101
-94
-80
-68
-66
-61
-51
-47
-47
-40
-28
-28
-35
-37
-54
-82
-75
-51
-59
-73
-61
-56
-80
-89
-80
-77
-73
-54
-28
-4
-14
-61
-82
-56
-47
-51
-47
-56
-70
-87
-167
-181
177
828
1132
597
-247
-441
-177
-99
-96
-11
21
0
4
21
40
54
54
61
75
77
82
110
141
165
184
202
226
236
217
202
219
202
158
118
77
23
-37
-87
-125
-141
-132
-118
-106
-106
-108
-92
-73
-68
-63
-49
-35
-28
-18
-4
2
0
9
23
28
28
33
40
40
35
40
51
51
42
40
51
61
59
56
61
66
66
56
56
59
54
54
66
68
66
75
92
103
115
118
87
56
61
77
82
77
80
82
40
-94
-151
191
842
1163
641
-224
-455
-188
-106
-125
-47
-9
-18
7
30
40
54
73
87
92
99
108
113
118
139
177
181
155
165
200
207
200
207
184
120
59
16
-23
-63
-94
-120
-136
-139
-125
-110
-106
-103
-96
-77
-66
-68
-61
-51
-47
-44
-37
-28
-25
-30
-25
-18
-18
-21
-14
-14
-21
-23
-16
-14
-25
-49
-61
-59
-73
-84
-70
-73
-103
-122
-103
-84
-94
-99
-75
-54
-54
-51
-35
-28
-33
-28
-9
-4
-14
-2
28
44
33
9
2
16
21
21
28
23
7
-16
-96
-129
181
811
1139
651
-172
-403
-158
-68
-66
18
54
42
61
82
87
92
94
99
108
108
115
139
160
177
200
228
245
231
207
219
238
226
202
165
101
37
-2
-33
-66
-96
-103
-94
-108
-136
-129
-106
-103
-94
-73
-59
-59
-61
-49
-30
-25
-21
-11
-4
-4
-2
-9
-14
-9
-7
-2
2
0
7
18
16
9
16
30
33
30
28
35
35
33
40
49
42
37
47
51
49
47
51
61
73
92
99
51
-14
-25
7
16
4
-14
-23
-44
-143
-231
23
625
1017
672
-120
-488
-290
-136
-129
-68
-51
-70
-33
-7
-21
-7
9
4
7
18
28
35
49
82
110
129
148
169
184
186
181
172
141
89
35
-14
-70
-127
-155
-160
-167
-179
-174
-160
-155
-162
-153
-132
-125
-132
-125
-108
-101
-106
-96
-84
-101
-118
-92
-63
-61
-66
-59
-47
-40
-35
-25
-21
-23
-23
-11
2
4
4
9
16
18
18
23
18
-11
-28
4
35
42
25
-14
-33
-11
9
11
14
18
23
2
-96
-113
261
892
1116
531
-245
-372
-129
-75
-49
51
68
51
82
99
94
108
136
151
155
155
158
162
174
186
200
202
207
226
250
259
250
226
191
141
80
25
-16
-59
-84
-82
-70
-75
-77
-68
-59
-51
-47
-30
-18
-23
-21
-4
-7
-18
-9
4
4
7
16
25
30
25
28
35
30
0
-25
-11
0
-4
4
21
18
11
21
35
35
30
40
49
47
44
54
54
35
23
42
66
61
40
11
-47
-77
-47
-23
-21
-18
-16
-16
-54
-148
-73
415
1031
1078
344
-344
-320
-94
-80
-40
37
30
18
40
37
33
47
61
73
80
94
115
136
153
184
219
231
236
261
280
271
259
245
212
151
87
40
-9
-80
-132
-127
-118
-146
-158
-134
-125
-148
-162
-146
-132
-127
-110
-84
-73
-70
-63
-75
-89
-70
-49
-40
-35
-33
-23
-9
-4
-7
-2
7
7
7
18
28
21
11
21
35
37
35
28
7
-7
2
18
16
7
4
14
23
33
56
82
80
42
16
30
51
47
42
51
54
30
-51
-118
103
674
1106
767
-103
-479
-243
-115
-136
-63
-9
-21
-11
11
28
44
56
54
44
56
82
103
134
165
181
205
240
264
273
278
285
280
257
214
162
103
44
7
-11
-33
-54
-54
-44
-42
-40
-25
-11
-9
-9
2
14
18
25
37
40
37
44
54
56
56
51
56
66
59
54
61
54
9
-14
2
0
-25
-25
0
-9
-59
-70
-40
-42
-51
-28
-9
-18
-30
-44
-54
-44
-35
-23
-9
-2
4
23
23
-25
-70
-51
-21
-33
-42
-21
-16
-61
-162
-165
210
837
1066
495
-287
-434
-181
-101
-92
-23
0
0
21
40
49
63
75
87
106
134
143
148
169
202
226
243
273
302
302
299
304
280
238
191
132
75
33
-4
-35
-63
-103
-120
-99
-89
-113
-122
-103
-84
-75
-61
-44
-44
-47
-30
-7
-2
-7
-2
9
11
9
16
18
0
-11
-7
-11
-21
-16
-14
-16
-14
-4
2
7
2
0
7
9
4
9
16
14
18
40
61
66
40
0
-21
-14
-11
-16
-16
-16
-28
-70
-153
-89
363
927
925
219
-396
-361
-141
-110
-66
23
33
11
16
33
40
25
14
35
56
66
94
129
148
167
191
221
247
266
269
266
259
233
188
139
87
28
-25
-54
-66
-82
-82
-73
-73
-73
-61
-54
-75
-108
-108
-80
-68
-63
-42
-28
-33
-33
-18
-4
-2
-9
-18
-21
-14
-7
0
2
-4
-4
9
18
14
11
18
23
14
4
4
-14
-47
-37
-9
2
16
37
23
-35
-75
-59
-35
-40
-42
-28
-33
-94
-186
-103
365
929
908
172
-448
-398
-186
-153
-96
-18
-11
-7
14
16
30
59
75
75
84
103
127
151
181
210
228
245
269
283
280
269
261
245
207
148
92
44
-7
-47
-54
-54
-63
-68
-56
-42
-40
-35
-30
-44
-61
-49
-25
-14
-11
-4
2
4
9
16
23
25
18
7
16
25
18
16
23
0
-42
-47
-21
-18
-28
-14
2
4
4
9
11
7
4
11
16
18
33
54
59
23
-7
9
23
16
16
21
14
-25
-120
-89
323
944
1125
502
-278
-387
-139
-87
-77
-9
2
2
25
35
33
30
18
25
51
75
89
106
134
162
188
210
224
231
233
238
245
238
205
151
92
23
-49
-106
-118
-127
-172
-188
-158
-160
-219
-245
-205
-177
-177
-153
-122
-115
-115
-94
-73
-66
-56
-44
-54
-66
-56
-35
-23
-25
-30
-18
-4
-4
-7
2
9
7
11
25
33
30
25
33
35
30
21
-2
-14
7
37
47
16
-21
-16
7
2
-7
11
21
-14
-103
-132
167
781
1139
698
-141
-431
-195
-89
-101
-25
11
2
21
40
37
49
63
44
25
49
82
89
108
148
179
195
212
231
245
250
252
252
228
177
122
75
25
-16
-42
-54
-61
-63
-56
-44
-37
-33
-23
-7
-4
-11
-21
-30
-23
-7
2
7
7
-2
-4
7
14
16
21
18
16
23
35
37
30
23
35
44
47
49
54
49
47
54
59
54
47
49
63
80
89
99
84
14
-51
-42
-21
-35
-40
-23
-21
-56
-143
-101
325
927
1050
396
-316
-361
-127
-84
-56
7
7
2
16
14
14
37
59
56
42
44
68
94
113
129
125
108
127
167
181
174
179
174
146
96
44
-2
-56
-99
-108
-103
-110
-113
-99
-89
-87
-75
-61
-54
-44
-37
-30
-14
-7
-2
4
0
-7
-2
11
14
11
11
16
7
-11
-11
0
-14
-30
-21
-4
-2
-2
0
11
14
9
14
23
21
21
37
63
77
56
9
-9
4
11
9
0
-9
-7
-9
-84
-148
94
677
1062
700
-92
-424
-214
-87
-82
7
54
35
51
77
80
84
92
92
99
106
113
127
146
160
174
188
202
219
238
250
250
231
202
162
103
44
0
-54
-122
-155
-139
-134
-141
-127
-103
-99
-103
-89
-75
-70
-61
-47
-37
-42
-56
-56
-49
-51
-47
-30
-25
-35
-33
-21
-14
-11
-11
-9
-4
0
4
14
16
9
9
21
23
18
25
35
40
56
87
94
59
16
28
49
33
16
23
30
16
-49
-118
103
693
1118
795
-18
-413
-224
-80
-80
-2
51
47
61
73
63
82
103
73
49
75
92
70
77
113
120
108
120
146
155
153
158
158
129
75
18
-25
-70
-115
-141
-151
-151
-143
-132
-122
-120
-118
-99
-80
-73
-70
-61
-44
-37
-35
-21
-4
-7
-16
-11
0
0
2
11
14
14
16
28
28
21
25
44
49
42
42
49
51
49
56
61
51
47
59
80
94
108
118
87
44
47
54
25
2
9
18
-2
-103
-184
73
693
1109
731
-115
-476
-280
-165
-153
-61
-14
-23
-4
18
25
44
66
77
82
99
122
141
162
188
202
210
224
243
252
254
240
217
188
141
87
37
-11
-59
-82
-92
-96
-99
-94
-80
-68
-68
-61
-44
-35
-40
-28
-7
-2
-4
4
9
0
-4
-11
-25
-25
-14
-11
-4
2
2
2
4
-9
-33
-28
-7
-11
-18
-4
7
7
11
21
23
16
18
33
40
40
49
82
106
84
37
23
42
47
51
61
66
56
18
-68
-44
358
991
1187
538
-257
-346
-99
-77
-99
-25
2
-7
16
42
51
56
66
89
113
129
136
139
160
184
177
177
198
200
202
221
224
200
165
120
63
7
-30
-51
-92
-148
-158
-125
-113
-115
-99
-84
-80
-66
-44
-33
-28
-23
-21
-18
-11
-4
0
7
16
25
33
42
47
42
47
54
56
56
61
61
56
63
80
77
70
75
80
84
87
89
94
94
84
82
77
63
63
80
99
115
101
63
40
47
59
61
68
73
68
40
-44
-94
205
844
1210
750
-94
-365
-134
-42
-42
33
54
14
11
42
51
47
68
87
92
101
115
125
134
146
169
202
219
221
233
245
247
236
210
162
103
51
11
-28
-63
-82
-82
-77
-75
-70
-59
-51
-54
-51
-44
-33
-30
-28
-18
-28
-47
-37
-18
-23
-30
-18
-7
-9
-9
-4
0
7
9
11
16
11
9
21
30
28
23
23
35
42
25
9
7
-11
-42
-37
-21
-23
-23
-11
-2
-7
-14
-23
-56
-75
-47
-33
-49
-51
-37
-47
-108
-191
-59
472
1010
882
108
-429
-328
-148
-141
-99
-44
-42
-28
-4
-7
-18
-30
-42
-37
-18
-9
2
18
40
70
99
108
120
148
160
148
141
127
75
11
-37
-82
-129
-172
-193
-198
-214
-228
-210
-186
-186
-172
-141
-129
-136
-127
-108
-99
-113
-134
-122
-94
-96
-96
-73
-54
-56
-59
-49
-37
-37
-33
-18
-18
-23
-18
-9
-9
-16
-14
0
4
2
11
25
25
4
-14
-7
4
9
25
54
66
44
7
-2
7
0
2
18
14
2
-35
-127
-33
474
1045
995
238
-379
-318
-101
-77
-25
51
47
35
59
70
59
51
63
80
96
115
129
148
172
188
212
250
269
266
273
280
254
200
158
115
49
-16
-59
-84
-103
-110
-110
-101
-94
-82
-66
-61
-75
-87
-68
-42
-33
-33
-28
-16
-9
0
16
21
18
23
33
35
35
40
44
42
42
42
33
16
11
23
33
16
-18
-23
0
2
-7
9
30
25
9
21
37
37
37
56
73
59
21
7
25
30
21
33
42
35
0
-94
-103
269
896
1090
448
-316
-396
-158
-120
-103
-23
-23
-54
-44
-21
-9
2
16
30
49
66
80
103
136
155
169
205
238
247
252
259
257
238
200
153
99
40
-7
-33
-47
-63
-68
-59
-54
-54
-42
-25
-18
-18
-11
2
7
14
23
28
30
35
44
54
54
47
51
63
63
51
49
51
47
42
49
63
59
47
51
59
25
-2
11
4
-28
-21
-4
-18
-25
-16
-14
-7
-2
4
11
16
28
56
66
33
-7
-9
4
7
7
16
23
-11
-120
-136
221
851
1135
606
-221
-431
-186
-101
-94
-23
0
-4
23
42
44
49
66
84
96
115
134
143
160
184
198
214
233
252
266
271
276
278
247
184
127
87
40
-4
-40
-89
-134
-153
-139
-118
-108
-101
-87
-73
-63
-54
-47
-49
-73
-82
-59
-59
-77
-66
-42
-37
-33
-18
-9
-9
-11
-4
7
11
9
11
18
21
18
21
16
7
7
11
16
25
21
16
21
30
33
35
33
25
21
33
49
61
82
87
47
4
4
18
4
-7
0
7
-14
-99
-155
103
710
1099
691
-141
-450
-228
-110
-103
-44
-42
-56
-18
4
4
9
30
44
51
70
101
120
139
165
188
210
240
269
283
280
273
276
259
207
148
101
49
2
-21
-30
-37
-49
-51
-37
-23
-25
-28
-30
-35
-28
-11
0
7
7
14
23
28
23
30
40
35
35
40
42
47
35
0
-14
-14
-21
-18
-4
-9
-16
-4
4
0
-7
-11
-28
-59
-75
-56
-37
-44
-37
-9
16
28
16
-30
-59
-49
-47
-51
-47
-44
-47
-80
-174
-118
339
925
967
285
-365
-375
-162
-127
-82
-7
-18
-21
21
30
21
42
70
80
82
101
122
139
165
191
214
236
250
264
280
287
264
224
188
127
30
-25
-47
-92
-127
-120
-108
-113
-122
-115
-99
-89
-84
-68
-59
-56
-47
-28
-21
-23
-11
2
-11
-44
-49
-25
-16
-33
-30
-16
-9
-4
-2
-2
-2
-16
-28
-16
2
-7
-23
-25
-23
-21
-9
-2
-7
4
35
49
11
-23
-4
21
4
0
14
4
-30
-122
-160
141
719
981
505
-259
-490
-259
-151
-139
-56
-25
-42
-18
2
2
18
40
51
70
96
106
115
143
184
212
224
243
276
287
283
283
269
205
118
61
25
-21
-66
-87
-94
-101
-96
-92
-101
-108
-87
-66
-59
-56
-47
-30
-21
-16
-9
2
9
7
14
28
35
28
28
35
33
35
44
42
7
-18
-2
16
14
14
23
18
4
2
7
2
-7
-2
21
44
54
40
9
-7
4
21
23
25
30
18
-44
-129
28
585
1123
962
127
-420
-287
-118
-127
-59
14
2
0
23
21
2
-14
4
42
56
59
77
106
103
94
127
169
177
186
214
226
214
184
141
84
28
-16
-54
-108
-155
-153
-132
-132
-136
-136
-134
-127
-113
-99
-87
-87
-80
-63
-56
-56
-47
-33
-33
-42
-37
-21
-16
-21
-28
-28
-21
-23
-25
-21
-21
-30
-30
-21
-23
-28
-35
-47
-51
-44
-44
-40
-56
-96
-94
-47
-37
-68
-89
-103
-125
-132
-115
-96
-96
-96
-87
-129
-214
-68
493
1064
955
136
-448
-354
-195
-200
-136
-80
-92
-73
-47
-40
-25
0
23
37
47
66
96
118
139
177
207
224
243
266
285
287
269
247
217
160
101
54
11
-28
-42
-35
-33
-47
-54
-37
-23
-21
-9
9
18
11
16
37
47
42
40
49
47
21
7
23
30
25
35
47
47
42
37
42
47
44
44
30
4
2
16
16
21
28
25
23
30
35
47
63
70
75
82
59
18
18
44
49
44
49
54
35
-54
-110
174
807
1217
818
-42
-372
-148
-56
-80
-4
21
-11
7
18
-16
-21
9
21
33
59
80
96
113
143
181
205
221
243
259
240
207
205
195
139
73
28
-11
-51
-84
-115
-141
-136
-122
-110
-99
-89
-82
-66
-56
-49
-33
-23
-23
-21
-7
7
14
14
11
18
25
25
30
44
40
28
40
54
44
42
42
33
18
21
30
33
30
35
47
51
47
44
47
44
42
49
54
56
68
89
101
73
23
11
30
33
21
25
35
25
-28
-120
-35
443
1012
1000
238
-453
-441
-193
-148
-122
-61
-49
-51
-47
-37
-21
-4
7
21
40
56
73
94
118
146
174
198
221
236
238
247
257
240
188
120
66
21
-30
-66
-80
-94
-101
-94
-82
-73
-73
-70
-59
-44
-37
-25
-16
-18
-16
-2
11
11
14
18
23
23
28
35
35
23
16
11
9
4
-9
-25
-28
-16
-7
-2
-9
-14
-4
9
-2
-49
-75
-59
-47
-54
-40
-11
0
-7
-30
-47
-37
-23
-28
-49
-73
-89
-108
-205
-283
7
653
995
509
-328
-578
-328
-221
-205
-101
-54
-66
-40
-11
-11
-9
7
18
16
25
51
77
101
125
148
174
200
214
228
236
221
193
169
129
73
4
-68
-106
-118
-127
-122
-118
-122
-113
-87
-77
-75
-63
-54
-61
-80
-84
-61
-47
-49
-37
-18
-11
-7
4
11
9
7
9
16
16
9
14
23
28
30
35
35
33
37
49
54
47
47
54
61
63
70
70
61
51
59
75
82
82
99
127
122
77
40
35
44
44
42
51
59
4
-118
-82
354
979
1151
505
-278
-361
-101
-54
-37
37
47
35
51
59
51
44
28
16
37
56
37
25
49
77
101
134
172
193
198
210
219
207
169
122
70
16
-33
-66
-82
-94
-103
-101
-82
-70
-66
-56
-49
-44
-37
-21
-9
-11
-18
-11
-9
-16
-11
4
7
4
11
23
28
16
-2
-2
11
11
14
18
18
16
25
33
14
-25
-35
-11
-7
-16
0
11
2
9
23
4
-16
-14
-2
7
7
2
0
-23
-56
-44
-18
-14
-9
-2
-2
-25
-113
-127
231
882
1180
625
-231
-438
-191
-113
-108
-28
-2
-11
14
30
18
23
47
59
70
94
108
122
151
179
198
195
195
224
254
261
261
254
221
167
120
70
16
-30
-59
-68
-66
-70
-66
-51
-47
-42
-40
-37
-28
-25
-28
-14
0
2
9
16
-4
-37
-42
-21
-28
-59
-61
-44
-40
-42
-33
-21
-23
-28
-14
-2
-2
-7
0
9
4
-11
-23
-28
-40
-49
-37
-21
-21
-23
-16
-4
2
16
28
4
-44
-61
-37
-21
-21
-18
-23
-37
-68
-162
-177
186
811
1047
488
-295
-455
-212
-153
-153
-59
-25
-37
-16
0
11
30
44
59
73
87
101
125
155
179
195
221
252
269
269
280
292
261
186
120
82
28
-35
-73
-87
-113
-132
-118
-99
-99
-101
-84
-63
-63
-68
-61
-37
-28
-47
-63
-63
-80
-101
-82
-61
-63
-61
-44
-35
-40
-40
-21
-9
-21
-25
-14
-2
-11
-35
-42
-28
-25
-21
-4
-9
-25
-18
-2
0
11
35
51
40
2
-9
11
16
4
11
16
-4
-49
-148
-151
238
863
1047
434
-328
-453
-214
-158
-167
-96
-54
-73
-96
-89
-56
-30
-23
-7
16
35
49
59
73
99
129
160
193
219
228
236
238
224
186
141
84
18
-28
-63
-101
-120
-113
-103
-99
-89
-80
-68
-59
-59
-47
-23
-18
-21
-7
4
7
11
18
25
30
25
28
42
49
47
47
47
44
42
44
42
25
16
16
9
9
14
14
4
-21
-40
-14
21
25
11
-11
-23
-18
-23
-30
-25
-23
-18
-37
-134
-148
245
896
1104
474
-318
-436
-198
-153
-127
-25
-7
-21
4
28
28
37
63
82
84
94
120
151
169
186
214
247
269
283
297
306
292
269
243
193
122
63
21
-16
-40
-56
-68
-70
-68
-63
-56
-63
-92
-103
-82
-73
-70
-51
-30
-28
-33
-23
-11
-16
-30
-33
-30
-51
-80
-66
-49
-59
-61
-47
-42
-42
-49
-63
-73
-70
-56
-40
-23
-11
-7
-33
-75
-77
-59
-59
-66
-66
-59
-63
-134
-231
-59
521
1057
873
30
-497
-342
-167
-165
-89
-30
-56
-63
-49
-56
-54
-21
0
0
16
47
63
77
108
143
169
195
221
243
250
243
233
210
143
61
4
-37
-94
-151
-167
-148
-162
-198
-188
-160
-162
-158
-134
-122
-113
-94
-80
-63
-51
-49
-35
-14
-11
-9
2
4
2
9
25
30
23
21
28
30
33
47
68
84
99
103
68
14
14
40
44
49
59
54
4
-92
-16
479
1095
1118
351
-346
-313
-84
-70
-16
68
51
44
75
68
47
63
87
96
108
134
160
188
202
205
221
233
212
198
210
217
202
179
141
80
16
-30
-63
-89
-108
-115
-113
-103
-96
-87
-70
-68
-66
-51
-33
-28
-21
-11
-18
-42
-68
-66
-51
-54
-54
-35
-23
-25
-21
-11
-11
-11
-9
-7
-2
-7
-11
0
21
40
56
51
9
-16
-2
-9
-35
-25
-16
-21
-37
-115
-165
115
731
1111
677
-181
-472
-221
-120
-122
-40
-2
-14
-4
-23
-51
-23
7
7
21
40
42
54
84
110
132
158
184
210
231
233
228
219
177
113
61
16
-35
-75
-92
-99
-108
-120
-120
-115
-120
-125
-103
-84
-87
-84
-66
-54
-49
-40
-28
-25
-25
-25
-42
-56
-40
-30
-33
-23
-23
-30
-23
-14
-11
-4
4
9
9
9
21
30
28
28
35
33
30
49
77
99
106
89
47
9
2
21
28
18
23
37
7
-89
-68
349
981
1125
448
-290
-320
-75
-40
-9
70
80
82
106
113
113
132
153
158
158
174
202
221
236
257
278
295
304
290
278
283
283
257
217
165
106
54
11
-28
-51
-56
-56
-59
-56
-49
-42
-33
-18
-11
-16
-21
-9
-11
-42
-80
-94
-70
-61
-66
-54
-42
-56
-66
-56
-59
-92
-122
-115
-92
-84
-84
-70
-61
-70
-75
-61
-47
-47
-49
-44
-42
-47
-47
-28
-9
-9
0
25
23
-16
-40
-18
-7
-21
-44
-47
-47
-84
-174
-160
212
811
1000
408
-339
-450
-202
-132
-113
-40
-21
-18
7
21
28
42
54
70
96
115
125
141
172
200
219
236
261
280
283
278
271
259
221
167
115
51
-30
-82
-92
-106
-125
-118
-96
-82
-77
-73
-61
-47
-40
-28
-16
-16
-23
-21
-14
-18
-28
-25
-18
-25
-56
-80
-70
-61
-59
-49
-40
-40
-37
-30
-28
-28
-18
-7
-7
-11
-2
14
14
7
14
28
35
49
77
77
35
4
23
47
42
37
42
30
-7
-89
-99
252
861
1073
512
-233
-375
-134
-51
-37
18
16
18
44
25
2
33
63
66
82
115
132
143
169
202
226
243
261
273
259
243
252
243
191
134
89
40
-14
-56
-80
-87
-94
-101
-96
-87
-106
-129
-110
-80
-77
-75
-54
-42
-40
-40
-37
-37
-51
-49
-30
-33
-47
-44
-37
-40
-42
-35
-23
-21
-30
-33
-9
14
9
-2
7
11
7
16
28
18
7
18
40
49
61
77
56
-2
-35
-9
16
9
-7
-18
-37
-84
-165
-82
398
984
986
245
-387
-332
-108
-77
-21
54
51
59
84
89
99
120
132
141
153
172
188
205
228
254
271
280
290
297
302
295
283
266
224
165
118
68
9
-30
-44
-51
-56
-56
-49
-47
-47
-33
-11
-11
-18
-7
2
-4
-9
-11
-14
-16
-16
-18
-25
-33
-37
-47
-66
-92
-106
-101
-89
-84
-80
-68
-56
-54
-54
-44
-33
-28
-23
-16
-9
-7
-4
0
4
4
14
37
63
75
63
25
-11
-2
23
25
23
30
25
-18
-106
-18
483
1078
1052
269
-365
-278
-54
-47
4
80
73
70
103
108
106
120
139
151
158
165
172
181
193
207
236
257
266
264
250
231
202
165
139
82
-11
-70
-89
-120
-155
-153
-143
-153
-153
-146
-148
-146
-132
-118
-106
-103
-103
-87
-68
-61
-66
-68
-63
-56
-42
-33
-30
-33
-33
-23
-14
-14
-14
-7
-7
-9
0
11
9
7
9
18
21
16
25
35
28
21
30
37
40
49
61
73
68
33
14
33
30
2
2
25
25
-11
-103
-89
302
929
1111
464
-339
-448
-167
-92
-82
-9
4
-2
23
42
51
68
80
84
92
94
110
141
165
181
207
236
247
245
243
238
236
228
193
141
82
21
-28
-56
-73
-94
-108
-101
-94
-96
-82
-59
-59
-66
-54
-35
-33
-47
-44
-28
-21
-23
-14
2
-9
-30
-25
-7
-4
-11
-11
-4
-2
0
9
14
9
9
21
25
28
33
30
18
-2
-28
-18
0
-4
4
37
54
23
-14
-4
16
11
4
9
7
-7
-73
-148
42
606
1047
769
-30
-443
-247
-75
-77
-25
28
33
44
66
75
75
73
68
68
70
44
14
42
87
108
125
148
153
141
146
165
160
132
89
40
-11
-59
-96
-129
-155
-167
-160
-151
-146
-146
-139
-122
-115
-115
-115
-120
-141
-165
-153
-127
-125
-129
-122
-110
-101
-96
-94
-94
-101
-106
-94
-87
-94
-94
-82
-77
-77
-68
-59
-63
-73
-61
-35
-16
-4
14
-7
-61
-66
-30
-23
-28
-21
-14
-9
-44
-146
-108
320
880
885
188
-429
-405
-181
-132
-73
7
14
16
44
56
63
77
94
106
120
136
139
136
153
179
195
210
228
250
259
259
245
219
162
66
-14
-49
-99
-160
-169
-158
-177
-198
-181
-160
-153
-141
-118
-103
-103
-84
-56
-59
-77
-63
-40
-37
-33
-14
0
4
7
9
0
0
9
-11
-28
-11
-2
-2
11
25
30
28
18
23
56
77
56
30
54
82
59
18
11
23
37
-2
-61
110
637
1097
861
40
-415
-219
-30
-33
0
37
59
87
99
96
103
118
132
139
134
143
160
120
92
151
188
188
212
210
188
198
188
146
94
33
-9
-56
-129
-148
-132
-160
-181
-179
-181
-169
-151
-132
-110
-129
-146
-113
-96
-101
-73
-54
-82
-84
-56
-63
-80
-75
-70
-61
-66
-70
-63
-82
-80
-56
-61
-59
-44
-54
-73
-56
-49
-68
-56
-11
11
4
0
11
-11
-47
-11
25
4
9
16
-18
-61
-136
-40
500
1125
1026
125
-490
-332
-146
-155
-77
-30
-37
-9
9
-2
-9
16
35
33
56
96
132
132
134
186
221
231
247
276
295
276
266
259
198
118
63
16
-28
-70
-113
-118
-96
-96
-96
-75
-63
-73
-82
-63
-37
-28
-18
-14
-4
-7
-18
7
33
14
21
51
40
33
25
-18
-9
40
40
33
37
21
23
40
16
-4
11
25
14
0
7
-16
-44
-2
21
23
49
42
16
9
0
9
33
28
23
25
-40
-120
70
667
1168
859
-28
-422
-167
-23
-63
9
77
59
63
94
96
68
40
49
82
84
94
127
151
169
210
254
266
254
269
276
243
245
243
186
129
75
-2
-49
-82
-129
-134
-110
-108
-110
-99
-96
-110
-127
-127
-132
-141
-127
-120
-132
-103
-70
-73
-63
-44
-37
-30
-30
-33
-35
-25
-18
-21
-18
-11
-2
-2
4
21
16
-2
0
21
30
25
30
54
73
59
40
37
21
28
54
54
54
63
89
120
120
77
37
33
44
51
61
66
70
61
-2
-87
42
559
1118
1026
214
-358
-221
-40
-56
-4
42
9
-25
-35
9
42
21
30
66
82
103
125
120
125
158
179
219
271
264
238
252
252
217
181
132
23
-66
-68
-84
-120
-110
-94
-96
-115
-151
-136
-87
-96
-101
-68
-56
-61
-44
-42
-77
-96
-54
-16
-23
-23
0
16
16
-11
-42
-21
11
9
9
9
18
44
28
-11
-7
0
-18
-7
9
-9
-14
9
30
37
9
-42
-66
-63
-47
-33
-42
-35
-16
-23
-47
-33
-7
-18
-47
-66
-47
-21
-25
-23
-4
0
-2
-47
-165
-75
464
1021
906
132
-441
-363
-146
-122
-87
-14
-4
-4
28
40
35
47
66
73
87
89
73
92
129
139
146
172
207
210
174
174
184
141
84
40
-21
-75
-96
-139
-200
-202
-188
-195
-186
-165
-151
-139
-120
-103
-106
-106
-87
-77
-70
-56
-77
-96
-66
-44
-47
-56
-63
-37
-11
-23
-23
-2
7
4
7
18
4
-21
-11
2
-4
2
21
21
25
37
33
30
42
47
51
56
51
59
73
70
61
59
73
80
84
110
118
66
11
-2
7
25
37
28
21
18
-30
-122
-47
427
1059
1142
405
-323
-328
-89
-61
-35
30
33
28
47
56
56
47
28
35
66
84
89
110
146
167
188
224
247
243
245
269
269
245
212
165
106
54
7
-21
-40
-63
-73
-54
-35
-40
-37
-25
-16
-11
0
16
7
-7
2
-2
-9
4
16
23
23
16
21
35
7
-37
-25
4
2
4
16
18
25
35
33
42
54
49
42
54
66
59
47
51
63
59
59
63
56
51
59
61
66
68
59
35
7
0
11
21
25
37
56
68
70
54
9
-18
-4
16
18
16
16
18
-18
-118
-59
408
1036
1142
427
-335
-361
-108
-87
-75
2
9
11
49
61
59
80
101
113
127
143
160
181
202
224
254
280
295
316
335
335
337
332
295
233
177
125
73
30
4
-9
-33
-51
-42
-25
-28
-56
-70
-47
-30
-33
-23
-7
0
0
4
2
0
9
18
21
21
21
23
30
33
33
37
30
0
-16
0
7
-2
0
9
7
-2
-9
-7
-11
-21
-21
-9
0
-2
-7
-4
4
4
4
14
16
9
11
18
23
25
37
44
54
75
82
49
14
9
16
21
25
25
30
4
-89
-68
358
995
1146
490
-264
-358
-151
-122
-87
2
7
7
42
54
54
66
77
80
66
61
68
73
94
120
139
172
198
214
236
250
245
236
212
158
82
18
-33
-75
-110
-132
-139
-141
-132
-118
-120
-127
-118
-99
-96
-101
-96
-84
-80
-82
-82
-87
-103
-118
-113
-108
-120
-125
-122
-125
-125
-127
-129
-125
-120
-125
-120
-115
-129
-125
-87
-84
-127
-146
-122
-122
-141
-113
-66
-77
-87
-66
-80
-115
-120
-101
-94
-89
-56
-11
-9
-47
-56
-40
-44
-49
-30
-21
-73
-153
-68
382
965
1050
358
-375
-394
-115
-73
-54
47
66
42
61
75
80
99
118
120
118
125
167
214
202
210
276
297
292
304
316
337
344
299
243
200
146
82
18
-18
-23
-49
-80
-54
-40
-49
-21
-9
-66
-87
-40
-49
-118
-134
-101
-94
-113
-84
-33
-47
-54
-30
-40
-56
-51
-23
-4
-7
-18
-14
-7
-25
-23
23
25
-7
28
59
14
-21
-7
33
51
21
9
33
33
28
33
47
82
87
61
77
108
87
59
63
47
9
11
25
18
0
-56
-108
129
757
1208
835
-47
-420
-198
-89
-106
-21
14
-9
14
44
54
49
28
51
92
80
73
108
134
141
160
202
254
264
240
243
264
257
207
136
87
49
-2
-51
-101
-139
-153
-172
-193
-167
-110
-115
-143
-120
-99
-115
-129
-134
-122
-84
-77
-103
-87
-56
-75
-80
-54
-40
-42
-51
-44
-4
7
-18
-18
-7
-35
-35
2
-25
-75
-44
0
-9
-23
-16
-7
2
4
-2
7
25
47
68
73
59
21
-28
-28
9
14
-2
23
49
4
-87
-96
231
866
1194
691
-165
-420
-155
-44
-49
30
89
80
77
94
110
125
125
125
160
191
191
207
238
250
261
299
339
361
372
368
356
354
335
266
184
108
42
-2
-37
-87
-110
-94
-80
-77
-70
-51
-42
-44
-44
-28
-9
-4
-7
-4
4
18
16
4
0
-21
-56
-59
-40
-35
-40
-49
-63
-68
-59
-49
-51
-54
-40
-18
-33
-80
-101
-80
-70
-75
-59
-42
-37
-23
4
28
14
-21
-23
-2
-2
-11
2
28
16
-70
-151
49
623
1128
910
59
-438
-254
-82
-110
-59
2
-2
16
47
49
59
77
87
96
120
146
158
169
202
236
254
278
309
320
311
318
332
309
240
165
106
33
-47
-77
-80
-108
-118
-92
-75
-77
-75
-63
-61
-73
-68
-42
-37
-44
-37
-21
-16
-18
-21
-16
-2
2
2
9
14
4
-7
-7
2
2
-9
-14
-16
-30
-42
-51
-77
-89
-75
-66
-51
-25
0
2
-23
-56
-49
-28
-33
-40
-23
-14
-23
-82
-165
-16
523
1038
866
56
-476
-337
-132
-115
-51
18
18
14
0
-11
14
42
40
54
84
101
115
146
177
200
221
250
276
287
297
306
302
273
224
158
84
14
-35
-61
-77
-89
-94
-84
-75
-73
-84
-94
-89
-87
-82
-59
-44
-44
-35
-18
-16
-11
-2
4
7
7
9
18
18
14
16
16
-4
-23
-21
-16
-49
-87
-77
-61
-92
-115
-84
-56
-77
-106
-118
-122
-108
-92
-89
-82
-73
-66
-89
-205
-276
59
700
958
403
-398
-575
-318
-240
-228
-118
-89
-108
-75
-49
-51
-33
-9
-2
2
9
16
40
66
87
118
148
165
179
202
224
217
195
167
115
40
-18
-51
-77
-103
-125
-139
-132
-118
-106
-92
-82
-82
-70
-42
-30
-33
-23
-4
2
2
11
28
28
18
30
49
47
42
54
59
54
54
63
66
61
47
42
42
18
-9
-2
7
2
11
33
51
70
84
56
-2
-14
21
28
18
23
23
9
-59
-148
25
620
1177
984
106
-417
-233
-59
-73
-9
44
25
37
66
77
89
103
101
94
110
127
129
146
172
193
221
250
264
283
292
285
276
264
217
146
89
40
-11
-44
-56
-63
-75
-77
-63
-49
-49
-44
-30
-25
-42
-61
-51
-33
-33
-33
-30
-40
-47
-37
-25
-16
-11
-11
2
11
11
7
9
2
-28
-42
-21
-11
-25
-25
-9
2
-2
-2
11
14
0
7
30
23
18
54
87
92
66
30
23
47
54
54
59
56
49
7
-89
-11
483
1102
1125
342
-368
-325
-94
-92
-49
37
42
40
61
68
75
92
108
122
134
136
141
143
129
110
122
153
174
193
214
228
221
193
160
120
61
-2
-61
-108
-134
-134
-127
-122
-118
-113
-99
-82
-77
-73
-56
-40
-37
-33
-16
-9
-7
-2
2
9
16
18
21
23
28
33
37
40
37
35
25
14
16
28
30
21
23
40
44
42
47
49
47
49
56
63
61
47
25
9
21
47
63
80
75
9
-42
-9
14
-7
0
30
23
-11
-89
-139
127
752
1161
743
-129
-441
-184
-68
-84
-7
42
25
30
51
63
80
89
89
108
129
136
153
169
174
193
212
228
250
259
252
250
245
219
181
129
56
-4
-37
-66
-92
-99
-96
-94
-89
-82
-73
-68
-89
-127
-139
-125
-110
-103
-94
-82
-68
-56
-49
-51
-75
-113
-115
-101
-125
-151
-129
-108
-110
-94
-70
-73
-77
-66
-44
-40
-42
-30
-21
-25
-25
-14
2
9
7
7
14
16
16
14
23
42
63
73
47
2
-9
14
25
23
21
21
4
-63
-146
-4
521
1047
915
136
-405
-297
-101
-84
-30
25
4
7
47
51
49
68
87
92
99
103
89
84
120
160
184
198
214
231
245
245
247
236
167
68
18
-14
-70
-120
-139
-146
-151
-143
-122
-115
-120
-113
-94
-84
-77
-61
-54
-61
-56
-35
-23
-25
-28
-14
-2
0
-2
2
9
9
7
11
23
18
9
16
30
25
18
33
42
25
4
7
14
7
4
21
28
28
37
56
61
33
7
18
33
30
23
18
14
0
-61
-143
30
594
1076
826
7
-446
-261
-84
-106
-66
7
11
9
28
47
61
73
66
51
51
61
80
110
132
148
179
212
233
243
243
243
233
181
113
63
11
-59
-101
-115
-129
-141
-134
-127
-129
-136
-134
-115
-106
-108
-99
-92
-96
-84
-59
-51
-56
-42
-18
-14
-21
-18
-9
2
7
7
7
4
-2
2
21
28
16
11
23
28
23
33
44
23
-14
-18
-11
-37
-70
-61
-35
-30
-40
-37
-63
-127
-153
-113
-84
-92
-94
-77
-96
-195
-172
261
913
1092
436
-337
-410
-158
-115
-87
7
0
-35
-4
11
-16
-14
23
42
47
63
82
101
127
155
188
217
233
250
271
278
276
264
226
169
113
59
11
-28
-61
-70
-63
-63
-61
-49
-40
-33
-35
-40
-28
-16
-16
-4
2
-25
-47
-30
-25
-56
-66
-40
-28
-35
-30
-14
-11
-9
9
21
7
4
21
28
25
28
30
21
2
-7
2
-2
-21
-25
-14
-7
-16
-16
-2
7
25
51
68
42
0
-2
25
28
21
28
35
18
-61
-132
103
712
1177
856
-35
-455
-233
-94
-125
-68
-14
-14
-9
-14
-35
-23
11
25
44
70
77
61
59
99
139
153
172
202
231
243
245
243
221
169
110
59
9
-47
-82
-103
-139
-155
-134
-122
-132
-125
-103
-94
-89
-84
-82
-70
-59
-51
-49
-47
-47
-44
-35
-30
-33
-35
-35
-30
-25
-23
-18
-18
-25
-28
-14
-2
-7
-23
-30
-23
-18
-16
-4
2
-2
4
18
21
14
14
16
23
33
49
68
84
87
63
28
0
-23
-30
-28
-33
-30
-37
-113
-165
110
722
1097
672
-181
-479
-228
-115
-118
-30
11
-4
11
40
49
61
80
92
106
129
148
165
186
205
226
254
280
297
313
328
328
316
290
231
160
101
51
16
-7
-30
-40
-40
-40
-33
-23
-14
-9
-4
7
16
21
28
42
49
44
40
49
66
66
59
61
66
66
68
66
47
18
7
14
0
-37
-42
-28
-33
-33
-14
-2
-11
-16
0
11
4
2
14
18
11
25
51
73
77
51
2
-25
-42
-66
-68
-61
-70
-75
-120
-202
-56
483
1005
840
44
-462
-311
-129
-127
-54
25
18
14
37
54
61
73
89
106
113
125
155
184
200
217
243
271
285
290
297
299
271
236
214
172
99
37
-2
-54
-110
-127
-106
-103
-118
-103
-75
-68
-66
-51
-44
-42
-35
-23
-11
-9
-9
2
14
16
9
-4
-7
9
16
14
16
18
14
18
28
28
28
30
16
4
14
23
16
9
11
18
23
28
25
30
47
68
80
59
18
11
23
18
9
4
0
-18
-108
-207
9
604
1014
686
-99
-474
-287
-129
-113
-47
-25
-59
-37
-2
2
18
47
61
63
77
106
127
143
167
195
212
224
247
261
266
273
278
257
200
136
84
35
-14
-47
-61
-68
-75
-73
-59
-44
-51
-51
-25
-7
-9
-7
4
9
4
11
30
40
21
9
25
42
37
33
25
0
-9
4
11
11
16
14
16
23
21
25
37
14
-28
-30
-18
-33
-47
-40
-25
-33
-49
-30
-30
-82
-103
-75
-56
-56
-49
-44
-56
-118
-200
-40
514
1033
861
51
-490
-365
-177
-172
-110
-44
-56
-47
-14
-14
-11
7
16
23
44
63
70
82
94
113
136
160
177
193
200
202
191
139
80
42
-7
-66
-106
-143
-155
-143
-148
-151
-127
-113
-110
-101
-77
-63
-63
-56
-37
-28
-21
-9
-16
-49
-80
-70
-44
-40
-42
-35
-25
-18
-9
-2
4
7
11
16
23
28
28
30
35
42
47
47
37
25
28
40
49
63
80
89
68
11
-16
21
40
18
21
44
44
-2
-113
-94
344
981
1097
398
-344
-394
-155
-101
-68
2
14
11
30
47
56
70
84
89
101
122
132
148
181
195
202
238
276
295
297
290
295
283
214
136
87
40
-9
-42
-59
-68
-77
-80
-70
-56
-47
-37
-25
-23
-18
0
11
11
9
9
23
25
21
33
44
40
35
44
51
49
23
-4
-7
-21
-44
-28
-11
-21
-18
2
4
2
14
18
18
18
11
0
0
4
11
21
40
51
25
-14
-11
11
18
21
21
18
11
-61
-129
139
783
1194
767
-110
-438
-202
-94
-106
-23
11
-35
-42
-9
-2
2
28
37
28
42
73
94
113
136
172
205
221
231
257
280
269
233
202
172
115
51
7
-30
-68
-82
-77
-77
-77
-68
-61
-54
-44
-37
-30
-35
-47
-37
-16
-14
-11
4
7
7
11
14
23
30
28
28
37
40
30
30
37
42
40
42
49
47
35
40
56
61
54
54
51
33
21
25
23
2
-7
18
18
-51
-99
-63
-44
-63
-54
-30
-47
-113
-202
-134
318
918
1000
316
-387
-405
-167
-132
-118
-51
-40
-33
-4
7
0
11
23
33
51
75
96
113
129
158
186
207
231
245
250
264
280
264
219
167
108
54
7
-37
-63
-70
-80
-84
-68
-51
-49
-54
-63
-63
-51
-37
-28
-44
-75
-77
-56
-63
-92
-84
-70
-73
-68
-54
-59
-89
-99
-75
-61
-59
-51
-47
-56
-56
-42
-35
-35
-35
-33
-40
-59
-63
-42
-16
0
0
-28
-56
-54
-47
-59
-61
-59
-63
-75
-141
-219
0
594
1007
656
-151
-512
-313
-172
-153
-70
-25
-35
-14
4
-4
-14
-4
9
16
28
54
82
101
120
151
181
202
231
247
247
238
200
155
113
18
-92
-127
-134
-167
-186
-184
-181
-174
-151
-127
-113
-115
-118
-99
-75
-70
-63
-42
-33
-25
-14
-7
-2
7
11
16
25
30
33
35
35
40
49
51
49
51
49
56
63
59
59
70
75
73
77
96
120
101
56
51
73
75
75
87
84
75
49
-37
-33
344
951
1125
502
-250
-351
-146
-132
-113
-11
0
-30
-14
18
28
30
49
66
73
77
99
125
141
153
174
195
221
238
245
247
245
231
193
146
89
28
-16
-51
-80
-87
-82
-73
-66
-66
-56
-47
-73
-96
-77
-75
-94
-75
-40
-33
-35
-25
-14
-14
-2
16
14
2
11
23
25
25
28
23
21
25
25
16
2
-4
2
14
14
4
2
9
18
18
30
61
51
-30
-94
-63
-28
-40
-44
-28
-18
-51
-148
-169
165
802
1132
620
-238
-460
-202
-127
-125
-30
2
0
25
35
35
59
80
89
99
113
122
139
169
193
205
226
245
254
259
266
269
257
224
177
118
59
7
-33
-54
-59
-70
-92
-87
-73
-70
-63
-40
-30
-37
-44
-35
-25
-25
-14
4
7
9
21
30
37
44
42
37
16
-9
-2
25
30
18
28
47
47
42
51
63
68
68
82
87
73
70
70
61
68
82
84
101
125
134
122
89
77
92
106
115
125
129
120
47
-30
179
769
1253
977
120
-311
-122
0
-21
66
113
89
118
143
122
120
143
158
174
193
207
231
247
252
269
292
302
309
328
344
335
323
311
264
188
132
87
9
-89
-132
-108
-101
-110
-89
-66
-75
-80
-56
-35
-35
-35
-21
-4
-2
2
14
23
18
14
21
35
40
35
33
33
28
23
37
42
28
25
37
28
0
-9
0
2
-4
-4
-4
-14
-23
-9
0
-14
-21
-14
-4
0
2
23
51
44
-2
-18
11
25
21
28
21
-2
-25
-96
-103
240
849
1106
571
-252
-474
-231
-136
-125
-40
-2
-11
2
18
37
59
63
61
77
82
80
106
136
148
165
198
221
233
252
269
269
245
210
169
101
11
-49
-77
-115
-139
-127
-115
-122
-125
-103
-87
-87
-80
-63
-54
-47
-37
-30
-14
-9
-11
-4
9
11
4
14
21
18
25
30
25
23
21
21
18
9
2
2
-2
-23
-37
-28
-16
-18
-21
-7
2
-2
0
9
16
25
49
66
56
18
0
18
37
25
11
14
7
-47
-139
-54
415
969
920
169
-427
-354
-134
-115
-77
2
23
28
42
47
51
54
28
0
14
30
21
35
82
110
108
120
151
172
186
202
205
179
122
56
2
-44
-84
-120
-148
-151
-141
-134
-127
-125
-127
-110
-99
-120
-146
-134
-118
-110
-96
-82
-82
-82
-75
-61
-56
-59
-51
-47
-59
-63
-61
-75
-89
-84
-75
-73
-70
-63
-54
-40
-42
-42
-30
-14
-4
-9
-11
0
16
18
16
23
21
23
51
77
82
84
61
16
7
33
37
9
-4
11
0
-87
-113
219
854
1177
679
-151
-377
-132
-56
-54
40
73
54
68
73
44
11
21
56
61
59
87
120
139
158
188
207
212
221
221
219
224
217
186
141
92
37
-7
-49
-77
-84
-77
-70
-70
-68
-56
-40
-35
-23
-7
-4
-7
4
16
25
33
35
40
49
49
44
51
56
47
51
59
61
63
63
68
70
68
73
77
68
66
75
77
75
80
87
89
82
82
92
96
80
66
68
75
77
61
44
54
61
47
47
40
-18
-63
-63
-77
-89
-63
-44
-47
-33
-18
-54
-155
-193
120
764
1132
677
-177
-462
-224
-120
-122
-33
9
-21
-14
9
16
28
47
56
70
94
118
136
158
179
207
228
252
280
299
295
287
290
280
233
167
118
77
28
-9
-18
-23
-33
-33
-23
-33
-40
-28
-16
-14
-23
-30
-7
-2
-47
-63
-28
-11
-21
-9
0
-4
2
18
30
33
23
28
42
35
16
9
14
16
18
28
33
18
14
28
28
18
25
33
30
33
37
44
56
54
47
47
40
25
23
28
35
54
63
47
11
-2
9
7
0
18
30
21
-11
-101
-94
316
960
1149
516
-278
-408
-169
-94
-66
-2
4
11
44
56
59
80
84
66
63
94
122
120
132
177
210
219
238
269
280
278
273
269
240
186
127
80
33
-4
-33
-59
-63
-54
-54
-47
-30
-30
-30
-14
0
2
7
9
11
21
28
21
9
9
14
14
11
7
2
-23
-59
-73
-59
-42
-42
-56
-73
-75
-70
-70
-66
-61
-66
-68
-63
-68
-75
-73
-73
-77
-80
-68
-61
-96
-132
-115
-92
-94
-87
-61
-56
-87
-122
-122
-101
-101
-110
-94
-87
-94
-115
-188
-186
177
788
993
420
-337
-476
-233
-158
-139
-63
-47
-44
-7
7
14
30
42
56
80
94
106
125
151
174
198
228
257
269
264
264
276
264
233
198
143
77
28
-4
-30
-59
-75
-59
-49
-59
-44
-23
-28
-28
-14
-16
-16
-14
-23
-21
-25
-54
-61
-35
-30
-40
-23
-4
-4
-14
-14
-4
4
4
9
11
-4
-18
-11
-9
-23
-30
-21
-9
-7
-11
-7
-4
-16
-25
-16
7
16
16
28
37
9
-23
-11
-11
-47
-42
-9
-4
-23
-89
-151
87
686
1097
745
-73
-441
-228
-70
-63
11
63
56
68
89
89
82
92
108
122
141
158
172
205
224
207
198
236
276
283
276
280
295
278
217
155
103
47
-2
-33
-68
-113
-118
-96
-94
-96
-68
-56
-82
-84
-59
-42
-40
-51
-51
-35
-33
-42
-37
-42
-68
-70
-51
-40
-37
-42
-42
-42
-37
-33
-30
-30
-33
-35
-40
-49
-59
-77
-87
-80
-84
-94
-89
-77
-77
-68
-51
-44
-42
-51
-89
-110
-89
-70
-68
-68
-70
-77
-115
-193
-89
403
986
974
198
-457
-396
-186
-172
-101
-14
-23
-28
4
21
28
44
66
77
89
106
134
155
169
179
188
217
243
252
264
278
273
261
238
179
110
63
23
-21
-44
-40
-40
-51
-54
-54
-49
-37
-28
-23
-14
-11
-4
7
4
-2
4
14
11
9
18
33
28
18
25
33
30
35
35
30
33
47
49
44
37
28
18
-2
-49
-84
-68
-47
-54
-56
-37
-18
-16
-11
4
21
9
-37
-66
-49
-25
-14
-11
-9
-14
-51
-132
-96
318
960
1151
500
-285
-363
-108
-75
-77
9
33
25
51
70
77
84
99
118
134
143
158
174
191
193
188
217
261
271
269
287
299
278
243
198
139
77
28
-2
-18
-42
-68
-63
-47
-44
-42
-37
-54
-80
-70
-42
-40
-51
-40
-35
-63
-80
-75
-77
-75
-61
-56
-61
-63
-66
-61
-49
-51
-61
-54
-49
-54
-66
-73
-63
-61
-68
-54
-54
-73
-80
-82
-84
-73
-56
-42
-37
-33
-7
-2
-51
-68
-30
-21
-37
-30
-4
2
-51
-155
-82
405
1026
1083
356
-354
-361
-129
-89
-49
25
33
28
56
68
73
96
101
70
68
82
84
106
143
172
188
205
243
278
290
285
278
271
247
193
125
56
-2
-37
-44
-54
-70
-70
-49
-37
-42
-37
-23
-16
-14
-7
9
25
23
11
23
47
47
37
44
49
47
56
61
54
44
33
21
7
2
11
11
-7
-4
14
18
16
14
11
14
16
18
30
28
21
28
33
30
11
-33
-66
-68
-89
-110
-84
-73
-96
-122
-198
-167
245
854
981
346
-368
-443
-205
-160
-167
-84
-44
-44
-28
-14
-7
14
42
59
73
96
113
127
155
181
207
236
259
271
280
290
292
278
236
172
106
59
23
-16
-61
-82
-77
-63
-56
-59
-59
-51
-35
-21
-14
-4
2
-14
-30
-9
9
0
-2
14
21
18
23
28
4
-37
-47
-35
-28
-28
-28
-21
-7
-4
-2
7
7
0
4
4
-11
-18
-2
9
16
40
68
63
16
-14
4
30
25
23
28
23
-11
-96
-68
332
920
1036
382
-342
-413
-179
-127
-99
-11
7
4
25
33
37
56
70
84
101
113
122
132
146
172
195
210
233
261
273
276
276
252
202
153
101
47
-9
-47
-56
-66
-80
-75
-59
-75
-113
-103
-70
-56
-56
-54
-42
-28
-18
-4
2
-7
-9
14
30
21
16
28
35
28
21
23
28
21
18
35
40
33
37
42
37
40
54
56
49
44
54
61
61
61
56
51
42
16
18
44
49
47
56
37
-2
-9
-4
-23
-47
-54
-47
-59
-143
-186
127
769
1139
703
-143
-455
-247
-151
-146
-66
-44
-61
-37
-37
-66
-51
-21
-23
-21
9
42
56
66
82
101
122
141
165
188
186
174
177
165
113
44
-4
-49
-99
-129
-136
-146
-158
-151
-136
-127
-122
-125
-122
-122
-118
-103
-89
-84
-73
-59
-56
-66
-66
-49
-40
-35
-33
-16
4
-2
-11
0
9
11
16
23
28
21
21
42
54
40
33
51
61
54
61
68
44
7
-7
9
14
-7
-4
21
28
23
51
87
75
33
11
30
42
35
35
51
56
30
-47
-118
94
684
1168
889
21
-417
-233
-120
-139
-54
0
-14
-2
16
21
40
54
56
75
103
120
136
158
184
207
233
257
278
299
309
309
302
269
221
188
146
70
7
-9
4
-7
-42
-54
-49
-33
-4
0
-18
-18
-2
-4
-33
-56
-37
-18
-21
-4
14
4
4
16
18
23
28
30
33
30
25
28
25
7
-35
-66
-66
-56
-59
-70
-82
-89
-87
-75
-61
-51
-49
-54
-44
-33
-35
-35
-28
-30
-25
-9
4
21
35
16
-37
-68
-59
-49
-54
-70
-92
-87
-87
-172
-174
224
842
991
365
-358
-462
-247
-191
-162
-92
-84
-80
-51
-68
-99
-70
-37
-37
-33
0
33
49
82
118
129
151
191
217
221
221
224
214
186
132
70
21
-25
-73
-94
-96
-103
-110
-103
-87
-77
-75
-63
-42
-33
-40
-30
-7
0
-2
2
11
14
25
37
40
40
35
37
49
56
44
30
30
21
9
23
30
11
11
25
33
30
25
18
21
35
40
40
47
42
47
63
63
40
11
-25
-54
-47
-33
-35
-56
-80
-92
-127
-224
-169
304
925
979
269
-413
-420
-198
-160
-113
-25
-9
4
35
30
30
63
84
89
101
120
139
155
179
214
247
264
278
295
302
290
276
264
238
179
113
70
23
-28
-54
-59
-61
-61
-56
-49
-51
-77
-94
-70
-47
-54
-51
-35
-23
-16
-9
-7
0
9
11
0
-23
-37
-28
-14
-30
-61
-70
-70
-84
-87
-63
-51
-68
-73
-54
-44
-49
-56
-54
-47
-49
-47
-28
0
16
-9
-51
-61
-49
-56
-68
-77
-94
-108
-153
-254
-172
337
941
932
174
-476
-422
-202
-188
-132
-42
-33
-25
-4
7
23
44
59
73
82
99
127
160
188
205
224
257
283
295
283
259
243
231
193
143
94
33
-18
-51
-101
-136
-115
-94
-108
-99
-63
-59
-63
-40
-21
-21
-14
0
11
16
16
18
35
44
42
42
35
25
30
44
49
44
42
47
49
42
37
47
49
37
35
47
54
51
49
49
51
59
61
61
61
66
82
108
120
108
68
21
4
2
-16
-30
-28
-30
-61
-146
-125
280
925
1151
535
-266
-382
-139
-125
-136
-40
-14
-30
0
25
25
42
75
101
108
110
125
153
177
191
214
243
257
280
311
325
318
292
254
210
136
44
-11
-35
-63
-89
-80
-54
-61
-75
-59
-40
-33
-23
-11
-11
-23
-18
9
21
-2
-16
2
18
-2
-21
-14
-14
-23
-14
-4
-16
-33
-42
-35
-25
-33
-37
-28
-33
-47
-33
-16
-25
-37
-35
-33
-54
-84
-77
-59
-70
-82
-87
-82
-73
-59
-40
-42
-84
-99
-66
-49
-63
-54
-33
-33
-75
-172
-122
337
986
1135
453
-316
-372
-120
-70
-49
16
30
35
59
70
77
84
82
94
118
141
148
141
155
198
228
245
271
299
316
316
316
311
278
224
172
115
56
18
4
-7
-21
-28
-21
-7
0
7
11
-14
-56
-56
-23
-9
-14
-11
2
16
18
23
33
40
35
37
42
44
49
49
33
23
28
33
35
28
23
37
51
40
35
47
44
23
23
40
40
33
37
47
33
7
0
0
-4
7
33
25
-23
-44
-14
0
-11
-7
4
0
-37
-129
-101
318
946
1118
497
-261
-375
-146
-99
-87
-25
-28
-30
4
9
2
30
54
35
25
54
77
87
120
160
181
198
226
259
271
271
278
273
238
186
132
82
33
-23
-70
-89
-92
-87
-77
-77
-75
-61
-49
-59
-80
-80
-61
-51
-44
-33
-18
-9
-11
-16
-7
2
2
0
9
14
9
14
25
21
0
-14
-11
-16
-18
-14
-11
-14
-14
-7
0
-2
-7
-2
2
2
11
25
25
30
44
54
33
-16
-56
-42
-28
-66
-96
-73
-61
-110
-207
-169
247
854
984
337
-398
-479
-226
-160
-136
-49
-23
-35
-35
-33
-18
4
18
33
54
82
94
103
132
167
191
212
238
259
271
278
276
259
217
151
96
51
-4
-54
-75
-82
-89
-89
-80
-70
-75
-75
-59
-42
-42
-35
-23
-23
-21
0
11
2
2
14
18
16
21
23
23
25
18
7
9
-11
-49
-49
-23
-18
-23
-23
-35
-49
-42
-42
-66
-75
-49
-14
4
-23
-68
-63
-42
-42
-35
-21
-42
-94
-153
-228
-134
351
915
849
51
-568
-457
-219
-210
-160
-70
-61
-56
-35
-21
-4
7
9
23
42
51
70
99
122
143
174
205
219
226
236
240
231
198
146
73
-2
-63
-108
-141
-174
-193
-184
-172
-198
-228
-217
-195
-195
-207
-214
-205
-188
-177
-169
-151
-136
-125
-108
-99
-96
-87
-73
-63
-61
-61
-56
-59
-68
-63
-49
-47
-47
-37
-25
-21
-21
-16
-4
11
25
25
7
-23
-33
-16
-4
-2
0
-2
0
-35
-143
-96
361
955
1014
320
-361
-361
-127
-96
-54
25
21
14
35
35
33
51
70
77
84
101
122
136
141
162
186
174
177
219
240
233
233
217
162
103
54
4
-49
-87
-103
-110
-113
-110
-101
-92
-82
-73
-61
-47
-42
-42
-30
-11
-4
-2
4
9
9
16
28
35
33
28
35
42
44
47
44
35
35
40
28
23
30
33
28
30
33
35
47
54
68
89
80
35
7
16
23
2
-16
-11
-11
-108
-276
-219
273
896
998
320
-403
-434
-184
-143
-120
-42
-30
-35
-11
-7
-9
4
14
28
49
66
77
96
125
158
188
214
236
250
259
261
264
252
202
132
80
40
-16
-51
-68
-92
-110
-99
-82
-80
-75
-70
-59
-44
-40
-28
-16
-18
-16
4
23
25
21
18
21
7
-11
0
14
4
7
23
25
23
30
28
28
33
25
21
25
0
-30
-14
14
7
2
14
21
18
23
33
35
42
61
87
92
54
9
9
28
25
21
37
42
16
-51
-118
70
651
1177
972
110
-408
-238
-51
-61
-9
42
28
25
37
33
35
49
56
70
89
101
113
120
118
141
181
207
224
238
252
266
261
226
169
108
47
-9
-47
-66
-89
-108
-99
-84
-82
-80
-68
-51
-68
-96
-84
-63
-73
-66
-33
-23
-28
-21
-11
-4
2
9
16
25
16
9
18
14
0
4
18
18
9
16
35
37
21
18
30
16
-14
-16
0
2
2
16
25
18
16
9
-11
-11
9
11
-4
-11
-2
7
14
14
16
40
51
16
-14
0
16
14
18
28
33
18
-44
-127
-2
512
1106
1113
309
-431
-396
-139
-134
-122
-47
-33
-33
-7
7
11
28
40
44
66
92
103
120
148
174
193
226
252
261
273
290
287
269
231
174
120
68
21
-11
-25
-54
-89
-87
-63
-63
-61
-44
-30
-33
-40
-37
-30
-28
-16
4
9
2
11
21
18
25
40
42
35
33
42
51
51
47
51
47
42
47
56
59
59
56
56
51
25
2
2
-4
-14
-2
7
-4
-7
7
11
4
9
23
21
14
14
28
40
35
30
42
56
61
63
80
94
75
33
7
-7
-11
-2
4
-9
-25
-18
-23
-118
-155
191
856
1229
764
-118
-405
-155
-61
-73
14
54
23
44
84
80
82
110
125
127
141
165
188
207
219
245
278
295
309
325
323
285
221
186
172
118
49
7
-23
-51
-63
-66
-75
-80
-66
-44
-37
-37
-30
-11
-2
-4
11
23
-2
-25
-7
14
18
18
11
16
28
30
30
40
40
42
47
37
25
21
23
35
40
28
35
44
30
25
44
51
47
51
56
49
51
63
66
59
42
28
23
14
0
0
2
0
4
16
28
30
33
54
61
7
-59
-54
-21
-18
-23
-14
-2
-18
-82
-153
9
568
1128
1000
153
-438
-304
-108
-127
-80
-9
-16
-7
28
44
54
61
68
89
113
127
136
155
184
214
243
264
285
299
309
320
323
304
261
212
153
89
44
9
-30
-70
-73
-51
-49
-54
-49
-35
-30
-40
-37
-18
-16
-30
-21
2
2
-4
0
2
-14
-42
-47
-30
-42
-75
-73
-51
-59
-68
-75
-99
-120
-122
-120
-110
-108
-108
-101
-89
-82
-80
-75
-63
-61
-61
-49
-40
-44
-47
-37
-25
-28
-21
-7
-2
4
18
33
23
-40
-92
-63
-30
-47
-56
-37
-33
-56
-120
-169
56
653
1109
804
-25
-441
-261
-108
-101
-28
28
25
37
54
61
68
82
96
110
129
141
153
181
210
221
219
214
226
224
207
207
205
181
146
96
40
-9
-61
-101
-120
-129
-125
-113
-108
-110
-103
-87
-82
-75
-59
-56
-61
-59
-54
-63
-70
-63
-66
-77
-75
-63
-61
-63
-63
-56
-44
-40
-49
-49
-37
-33
-30
-23
-21
-35
-33
-18
-9
-9
-11
-14
-4
4
9
9
14
18
18
30
44
37
11
-21
-40
-35
-18
-4
-9
-47
-73
-63
-118
-186
75
698
1083
693
-115
-443
-226
-101
-101
-14
44
35
47
68
68
75
96
110
122
132
141
151
160
177
207
238
259
271
283
299
302
283
254
212
146
77
37
-7
-56
-73
-68
-73
-89
-94
-89
-94
-103
-89
-77
-77
-77
-75
-73
-61
-75
-99
-80
-61
-68
-68
-54
-44
-42
-37
-25
-21
-28
-33
-30
-54
-87
-75
-61
-89
-113
-92
-70
-77
-73
-59
-59
-56
-40
-40
-47
-30
-2
14
11
-25
-49
-25
-9
-18
-9
9
2
-40
-127
-80
365
991
1109
429
-316
-375
-122
-68
-51
23
47
47
73
92
84
77
89
108
120
132
143
139
158
193
212
226
250
261
269
287
295
273
228
172
118
56
2
-35
-61
-103
-146
-139
-110
-110
-115
-110
-108
-113
-120
-113
-101
-106
-96
-73
-68
-70
-61
-51
-49
-44
-33
-25
-33
-40
-28
-11
-9
-11
-16
-11
-2
0
-2
4
7
2
11
30
30
14
9
18
21
28
54
75
59
0
-28
0
18
7
11
23
18
-21
-106
-75
337
974
1165
528
-259
-365
-113
-61
-44
35
63
66
84
84
80
84
70
59
87
113
118
139
172
193
210
243
280
299
309
311
309
292
257
205
143
75
18
-14
-44
-77
-87
-77
-77
-82
-70
-66
-73
-75
-66
-51
-42
-37
-33
-25
-18
-37
-54
-40
-35
-70
-89
-77
-73
-96
-99
-75
-75
-92
-84
-68
-68
-75
-70
-59
-59
-63
-59
-59
-70
-77
-70
-56
-54
-51
-40
-33
-44
-63
-84
-103
-101
-87
-77
-70
-70
-73
-94
-186
-205
160
818
1121
575
-269
-474
-226
-158
-148
-59
-44
-70
-35
0
-2
7
30
49
61
77
106
120
113
122
167
205
224
245
269
285
278
261
243
198
127
68
30
-2
-33
-49
-59
-59
-49
-44
-40
-35
-33
-25
-9
2
9
11
21
33
33
37
44
42
37
37
37
33
35
40
30
-7
-42
-28
-7
-21
-30
-4
9
2
-2
-7
-14
-7
2
7
0
-16
-28
-23
-18
-11
0
-9
-23
-9
-18
-56
-54
-30
-28
-23
-16
-14
-23
-87
-167
30
630
1158
955
101
-424
-273
-99
-94
-25
25
9
25
66
70
73
89
101
118
139
153
172
193
202
226
266
297
311
320
337
342
330
311
276
212
139
87
35
-37
-89
-94
-99
-132
-148
-127
-106
-108
-101
-73
-54
-56
-54
-59
-75
-70
-49
-37
-35
-35
-33
-18
-11
-14
-9
0
-7
-14
-4
2
-4
-16
-21
-16
-23
-37
-35
-28
-35
-44
-35
-23
-23
-33
-30
-25
-35
-37
-25
-18
-18
-2
18
4
-49
-82
-66
-54
-73
-82
-66
-59
-96
-202
-200
191
837
1102
528
-316
-509
-243
-143
-141
-75
-44
-44
-21
-7
-14
-14
0
23
54
75
80
101
139
167
193
224
250
269
285
285
278
273
250
195
141
87
28
-11
-28
-40
-49
-51
-44
-35
-30
-28
-16
-2
2
14
28
25
25
37
47
49
47
49
63
66
54
59
51
33
33
49
51
51
54
54
54
56
54
61
56
18
0
21
23
-11
-30
-18
-11
-14
-9
4
9
2
0
9
14
16
28
37
23
21
59
77
23
-23
-11
2
-14
-25
-21
-14
-33
-106
-162
77
670
1095
778
-35
-438
-252
-96
-94
-37
14
21
16
-16
-35
2
30
23
33
68
84
92
115
146
179
207
226
245
269
278
285
292
264
212
169
120
51
-16
-66
-92
-122
-146
-127
-113
-127
-118
-84
-73
-66
-61
-66
-61
-44
-35
-18
-11
-14
-9
4
11
11
11
18
21
16
18
30
23
16
30
42
33
23
18
16
9
7
18
33
23
0
-9
2
11
4
4
18
25
30
47
66
63
33
0
-11
-7
-4
-14
-23
-23
-28
-82
-179
-40
521
1043
840
25
-474
-330
-169
-193
-127
-61
-80
-63
-21
-16
-11
14
40
56
68
84
108
132
155
181
210
233
250
273
292
290
273
252
226
177
106
44
2
-37
-66
-73
-70
-89
-106
-92
-77
-77
-63
-42
-37
-30
-18
-9
0
0
-7
2
21
25
23
28
30
25
23
23
4
-16
-7
7
-4
-23
-16
-4
-9
-21
-21
-11
-7
-9
-7
-4
-2
4
16
30
25
2
-4
-18
-42
-40
-30
-35
-44
-51
-51
-75
-202
-245
146
804
1014
396
-391
-514
-259
-198
-179
-77
-56
-70
-28
0
2
16
35
44
61
89
118
134
151
177
212
238
259
285
304
304
299
283
233
158
92
44
0
-47
-70
-84
-106
-108
-96
-82
-68
-66
-66
-47
-30
-23
-14
-2
0
0
4
16
28
37
33
30
25
-2
-16
2
9
0
7
18
7
-14
-14
-11
-21
-23
-7
-2
-14
-14
2
11
16
18
18
21
18
16
30
42
42
51
61
66
54
4
-33
-14
4
-16
-35
-40
-42
-63
-141
-174
148
802
1151
667
-184
-441
-184
-89
-101
-16
23
11
33
56
56
63
84
103
115
125
136
165
198
212
226
259
285
271
250
269
285
269
236
195
141
77
30
-7
-42
-66
-68
-61
-54
-51
-42
-33
-33
-28
-9
9
7
2
16
30
28
25
30
40
47
40
16
16
23
9
-11
-11
-7
-14
-4
9
9
4
11
14
7
11
18
4
-23
-37
-25
-16
-16
-9
0
-4
-25
-35
-25
-16
-14
-2
16
23
0
-44
-63
-54
-49
-51
-42
-54
-82
-122
-200
-136
339
979
1062
332
-387
-382
-132
-106
-87
-7
11
7
28
49
59
68
77
94
106
103
115
132
139
153
193
228
245
259
273
292
302
283
252
210
143
80
35
4
-23
-44
-54
-49
-42
-35
-25
-18
-21
-16
0
9
11
18
23
21
21
25
37
37
25
18
23
23
11
9
28
18
-30
-40
-9
-11
-28
-18
-4
-9
-11
-2
0
0
4
11
14
-2
-23
-35
-56
-66
-66
-68
-70
-61
-49
-33
-14
-7
4
14
-14
-49
-35
-9
-16
-23
-11
2
-11
-101
-148
153
785
1161
738
-99
-415
-184
-56
-51
14
37
11
21
42
42
56
87
96
99
120
141
160
179
195
221
247
271
302
311
278
257
266
259
214
155
96
42
0
-28
-44
-59
-73
-89
-106
-108
-87
-73
-75
-92
-108
-96
-73
-73
-75
-54
-44
-54
-54
-44
-49
-51
-35
-23
-30
-35
-30
-25
-21
-23
-23
-18
-16
-21
-18
-18
-33
-51
-56
-54
-63
-80
-82
-61
-59
-77
-70
-59
-66
-75
-70
-59
-56
-54
-37
-16
-21
-56
-84
-80
-68
-66
-63
-61
-61
-63
-110
-191
-30
521
1005
783
-49
-556
-389
-186
-177
-115
-47
-51
-42
-7
7
18
40
59
70
82
99
125
155
174
188
221
259
280
295
311
316
309
287
252
205
134
63
21
-4
-33
-47
-47
-49
-47
-35
-23
-21
-18
-7
2
7
11
21
28
33
40
44
42
30
23
28
30
25
18
9
2
-7
-23
-25
-11
-9
-18
-14
-4
-30
-61
-44
-25
-37
-49
-42
-37
-44
-54
-47
-42
-44
-33
-11
-4
-4
9
21
-9
-42
-33
-30
-44
-35
-16
-14
-37
-120
-155
158
781
1083
608
-172
-431
-214
-84
-63
7
35
33
61
82
82
89
101
108
125
153
172
174
181
210
219
195
200
243
254
233
228
245
228
177
118
66
14
-33
-61
-80
-122
-155
-139
-118
-141
-172
-155
-125
-118
-108
-82
-68
-70
-66
-47
-30
-37
-59
-63
-47
-40
-42
-35
-28
-33
-33
-28
-30
-28
-23
-28
-28
-18
-9
0
4
-2
-4
-2
-9
-16
-14
-14
-2
14
0
-35
-42
-33
-35
-35
-28
-21
-33
-120
-226
-14
599
1047
733
-87
-502
-306
-132
-118
-30
23
11
33
68
73
73
82
99
106
92
92
127
146
158
188
219
238
257
276
287
290
280
261
221
153
82
35
-4
-40
-63
-73
-77
-82
-70
-44
-40
-51
-40
-14
-4
-9
-4
4
7
14
25
21
4
-2
2
2
0
2
-4
-28
-40
-30
-23
-21
-21
-25
-18
-4
-7
-11
-2
7
9
18
40
59
44
-4
-33
-23
-21
-25
-18
-30
-82
-139
-210
-181
214
835
1007
372
-387
-467
-200
-141
-120
-18
11
2
18
35
47
66
77
89
101
99
87
108
148
169
191
224
254
271
278
283
283
261
221
172
113
51
-7
-66
-113
-120
-110
-101
-92
-87
-82
-63
-51
-42
-40
-35
-25
-14
2
16
16
9
14
28
37
35
25
21
25
28
37
47
37
25
33
37
9
-30
-25
-14
-21
-18
-4
-2
-11
-9
16
42
56
44
9
-9
9
23
23
33
33
11
-49
-162
-129
309
946
1083
396
-356
-401
-160
-143
-134
-49
-33
-33
2
16
11
30
56
68
84
103
122
139
160
191
219
245
264
287
299
287
271
264
236
174
110
59
14
-25
-61
-73
-63
-66
-68
-51
-42
-44
-40
-21
-7
-7
-9
0
9
-11
-37
-25
-7
-11
-7
7
7
0
0
7
14
14
18
23
23
18
25
40
42
25
0
-7
7
9
11
23
18
0
-2
11
23
30
42
61
51
11
0
23
25
7
9
25
21
-30
-127
-66
394
1028
1154
443
-335
-382
-136
-125
-139
-77
-54
-51
-30
-11
0
14
21
40
66
80
92
113
143
153
139
143
174
195
198
217
231
217
184
141
82
23
-23
-51
-70
-89
-120
-127
-106
-96
-94
-77
-63
-61
-51
-33
-18
-18
-18
-4
4
7
9
0
-9
0
14
18
18
21
25
28
30
30
33
35
30
28
37
44
42
37
42
49
49
51
59
61
56
56
70
73
59
56
63
54
42
61
82
56
-18
-51
-18
-2
-16
-7
7
2
-21
-92
-129
158
771
1163
764
-99
-448
-219
-101
-127
-66
-14
-21
-14
0
7
23
33
37
54
75
87
108
136
160
179
202
233
257
269
280
290
280
252
214
165
106
44
-4
-30
-44
-59
-59
-47
-49
-54
-47
-25
-9
-16
-23
-11
-2
-2
9
16
11
16
28
35
35
33
33
30
4
-16
0
7
-25
-40
-18
-4
-11
-11
-2
7
7
7
16
23
11
2
7
14
16
18
21
21
18
23
30
9
-33
-30
2
11
14
2
-35
-47
-21
-7
-7
-4
-7
-4
-40
-134
-77
389
1012
1102
396
-339
-382
-151
-122
-101
-28
-23
-28
0
9
7
28
51
61
66
82
106
127
148
179
191
162
143
174
202
205
212
219
191
139
84
33
-30
-94
-120
-115
-115
-120
-115
-106
-94
-84
-73
-56
-42
-47
-47
-25
-11
-14
-11
-2
7
9
11
18
21
16
23
37
35
25
25
30
23
11
21
33
28
18
28
37
33
33
40
42
40
40
47
51
49
47
47
35
23
23
16
-4
4
30
47
35
-7
-33
-11
9
-2
-11
-7
-23
-77
-155
-167
141
743
1040
556
-247
-500
-259
-151
-158
-80
-30
-37
-23
-2
4
14
25
40
66
84
92
113
143
167
184
200
217
233
250
261
273
266
236
188
136
82
25
-23
-54
-75
-84
-80
-77
-82
-77
-61
-49
-47
-49
-59
-73
-66
-44
-33
-28
-28
-33
-35
-47
-70
-80
-63
-59
-63
-49
-35
-42
-44
-37
-30
-42
-68
-70
-49
-56
-66
-51
-47
-54
-49
-37
-35
-33
-30
-30
-23
-11
-4
7
14
11
11
2
-33
-44
-18
0
-11
-28
-30
-33
-89
-184
-89
413
979
927
174
-429
-370
-160
-129
-63
16
4
-18
2
23
28
44
68
77
77
96
127
143
165
205
231
240
264
297
309
306
297
285
252
193
127
70
4
-75
-120
-118
-115
-120
-110
-96
-87
-82
-68
-51
-44
-42
-37
-33
-21
-14
-14
-7
4
11
18
23
16
14
28
42
33
9
0
11
16
9
11
21
16
11
21
25
11
-4
-2
7
7
0
-2
-2
-2
4
21
33
28
-9
-51
-51
-30
-25
-21
-23
-33
-33
-80
-172
-23
540
1083
934
125
-420
-290
-106
-110
-40
30
-2
-18
7
7
0
23
51
68
82
96
120
151
177
198
226
254
276
297
316
320
306
280
245
191
125
70
18
-49
-108
-120
-120
-143
-143
-120
-113
-115
-101
-84
-73
-73
-66
-47
-33
-35
-33
-21
-16
-16
-11
-18
-30
-33
-25
-21
-23
-33
-33
-30
-33
-37
-37
-30
-30
-37
-35
-25
-25
-37
-44
-51
-84
-125
-122
-118
-132
-139
-125
-108
-99
-77
-54
-59
-99
-115
-94
-73
-75
-73
-54
-42
-68
-148
-179
125
764
1161
724
-162
-479
-240
-132
-127
-47
-9
-11
7
23
37
63
77
84
101
125
141
155
184
214
233
257
292
316
328
332
335
330
309
261
207
148
84
33
-7
-37
-44
-37
-37
-35
-28
-14
-2
0
-4
2
21
16
-16
-16
2
-7
-18
-2
11
7
2
11
23
23
21
25
25
25
16
-7
-25
-30
-25
-16
-4
-4
-4
-7
-14
-23
-30
-25
-14
-16
-25
-11
4
4
14
37
47
33
4
-14
-4
7
7
14
18
16
4
-68
-143
94
729
1194
859
-16
-415
-191
-47
-56
18
63
40
51
87
80
51
44
68
82
63
61
101
127
136
172
212
238
257
273
285
285
266
236
202
143
68
11
-23
-61
-84
-89
-94
-99
-92
-80
-70
-68
-68
-56
-44
-47
-44
-33
-33
-35
-28
-18
-23
-37
-42
-37
-37
-49
-54
-61
-70
-73
-63
-54
-54
-59
-54
-44
-40
-42
-33
-16
-16
-23
-21
-21
-28
-40
-47
-37
-33
-25
-9
4
14
28
25
-9
-35
-18
-18
-66
-113
-115
-89
-103
-200
-214
143
790
1097
585
-236
-448
-193
-94
-77
-2
14
7
40
61
63
75
92
99
113
132
155
172
188
214
238
247
266
297
311
313
323
323
297
243
179
120
70
25
-9
-30
-42
-47
-40
-23
-14
-21
-18
0
9
11
16
28
30
28
40
54
47
30
33
25
4
-2
4
-7
-40
-66
-56
-37
-35
-35
-37
-35
-25
-18
-9
-2
-9
-16
-4
9
9
11
14
9
9
21
30
30
23
-11
-49
-44
-25
-23
-25
-25
-30
-30
-82
-184
-44
523
1017
776
-16
-462
-309
-141
-120
-40
21
4
9
42
56
61
73
89
106
118
127
132
155
184
198
205
217
238
261
280
285
278
261
224
165
101
40
-9
-56
-110
-132
-125
-122
-120
-101
-87
-89
-87
-73
-56
-47
-44
-42
-40
-42
-40
-23
-7
-7
-9
-2
7
11
9
16
16
9
11
28
23
4
2
11
11
9
11
16
16
9
11
25
37
44
49
51
47
25
-2
-4
11
-7
-42
-42
-30
-47
-101
-198
-110
398
965
896
148
-448
-382
-155
-122
-75
0
-14
-42
-30
-2
18
28
35
56
75
82
108
141
153
169
212
250
266
283
299
306
299
276
240
184
110
49
7
-30
-63
-77
-77
-75
-73
-68
-54
-44
-40
-33
-21
-9
-4
-9
-11
-4
0
2
18
16
-7
-9
9
11
4
9
16
14
14
23
28
21
21
30
35
28
28
25
16
9
7
11
25
40
40
18
-37
-101
-132
-108
-92
-101
-89
-70
-110
-207
-139
339
941
967
231
-450
-443
-219
-179
-127
-54
-56
-54
-16
-11
-14
14
35
28
33
59
68
70
92
120
151
177
198
217
228
214
191
181
146
77
14
-42
-96
-139
-162
-167
-167
-169
-165
-148
-134
-127
-115
-103
-99
-87
-68
-56
-63
-73
-59
-33
-30
-28
-16
-18
-42
-63
-49
-25
-28
-35
-23
-11
-11
-7
4
9
2
11
25
28
18
18
30
37
40
47
61
73
49
4
-4
21
21
11
25
37
25
-16
-132
-120
332
984
1106
422
-316
-361
-125
-99
-77
2
2
-14
11
33
42
51
66
73
92
113
120
129
155
179
205
240
266
283
292
299
297
283
252
200
132
61
16
-7
-35
-54
-56
-61
-82
-106
-92
-63
-63
-63
-47
-28
-23
-21
-23
-28
-21
-11
0
11
14
9
14
30
35
30
11
-9
-11
2
14
16
16
16
23
33
35
40
37
14
-16
-11
9
7
-2
4
7
-2
9
37
47
35
2
-25
-16
0
-4
-7
2
2
-18
-92
-153
99
729
1187
828
-56
-438
-210
-82
-101
-37
-2
-28
-30
-11
-4
-7
-4
7
14
7
-9
7
44
61
73
106
141
162
174
172
153
146
139
108
56
-2
-56
-94
-115
-134
-141
-134
-129
-127
-113
-89
-80
-82
-84
-68
-49
-47
-37
-23
-23
-21
-2
11
11
14
16
21
30
33
35
42
42
37
44
51
54
56
56
56
61
63
68
73
66
51
49
54
47
44
59
59
33
30
70
77
25
-16
0
21
2
-21
-25
-21
-30
-101
-151
108
726
1163
811
-54
-427
-193
-59
-70
-2
33
2
4
21
14
21
40
49
63
82
92
110
141
165
181
207
240
264
273
290
302
292
264
226
174
113
51
0
-33
-51
-61
-61
-63
-80
-75
-47
-35
-35
-28
-16
-9
-4
2
14
18
-11
-42
-28
-9
-30
-47
-35
-33
-61
-77
-56
-44
-56
-51
-33
-28
-33
-28
-21
-25
-33
-18
-7
-16
-25
-11
2
-9
-9
4
7
4
16
40
56
37
-11
-37
-23
-21
-33
-30
-25
-33
-77
-167
-94
370
944
969
261
-410
-413
-186
-153
-120
-40
-25
-28
-25
-30
-23
-11
-9
9
33
40
51
80
110
120
129
160
186
181
169
186
205
184
148
108
56
-2
-59
-110
-139
-148
-146
-132
-122
-125
-115
-94
-80
-77
-68
-54
-40
-30
-18
-4
-2
-7
0
16
28
28
28
30
33
30
40
51
42
30
33
35
23
23
30
33
35
40
44
54
54
42
44
59
59
56
70
84
96
106
73
11
-2
16
16
9
14
18
2
-96
-186
80
710
1047
594
-200
-481
-259
-129
-110
-23
14
2
30
49
35
40
49
47
63
84
101
118
134
153
186
224
252
266
276
283
287
276
254
207
129
61
21
-23
-66
-84
-92
-94
-92
-87
-77
-87
-115
-108
-80
-75
-68
-49
-42
-40
-30
-40
-51
-44
-37
-33
-21
-16
-11
-2
0
-2
-7
-4
2
4
-2
4
18
14
18
33
14
-30
-35
-4
4
4
28
59
49
7
-4
18
21
2
0
14
14
-44
-143
-40
462
1019
969
214
-410
-346
-118
-89
-42
35
37
44
70
80
84
89
84
84
94
110
127
143
167
188
210
224
226
233
252
264
259
240
200
139
66
-7
-54
-82
-103
-122
-132
-120
-108
-103
-92
-75
-73
-70
-54
-37
-28
-23
-21
-9
-7
-35
-54
-33
-18
-23
-14
4
7
-2
-2
4
-7
-16
-2
9
2
0
16
25
21
14
16
23
30
42
61
84
87
63
35
40
56
51
35
30
30
-2
-94
-169
44
641
1128
856
-4
-457
-257
-92
-94
-16
44
30
35
63
75
82
82
87
92
92
103
129
151
165
184
214
243
264
280
285
283
250
193
148
106
44
-23
-77
-113
-153
-186
-174
-160
-162
-148
-125
-113
-106
-96
-82
-66
-54
-44
-37
-33
-28
-16
-2
0
0
4
11
16
7
-14
-18
-16
-21
-23
-21
-18
-14
-9
-2
-2
-2
7
14
11
11
18
23
21
23
40
59
75
89
75
33
9
21
30
28
33
40
25
-49
-129
66
646
1149
927
80
-420
-269
-127
-127
-49
0
-14
4
25
18
11
18
35
49
63
77
94
118
146
172
198
219
236
257
273
264
240
226
181
103
42
4
-42
-82
-101
-103
-103
-99
-87
-75
-73
-70
-54
-37
-30
-28
-18
-4
0
7
16
21
16
18
33
42
40
40
44
47
42
37
42
47
37
33
47
54
44
37
42
35
4
-7
14
21
9
11
25
28
33
47
61
75
94
82
42
23
28
25
14
0
-11
-18
-70
-167
-75
431
1047
1062
287
-384
-323
-92
-80
-37
28
21
21
47
47
40
44
54
68
80
96
113
110
92
108
155
172
153
155
172
181
186
184
153
99
40
-4
-49
-92
-115
-122
-127
-122
-113
-99
-99
-127
-134
-106
-87
-82
-75
-63
-54
-44
-33
-21
-14
-16
-16
-30
-54
-49
-33
-30
-25
-18
-11
-2
0
-7
0
16
18
16
25
30
25
30
37
44
42
42
49
47
44
54
70
73
75
99
120
89
23
2
35
44
35
40
47
37
-21
-110
9
531
1104
1045
261
-356
-269
-47
-30
4
61
49
40
59
56
49
63
73
77
94
118
122
120
120
129
134
139
165
198
207
212
226
214
167
115
68
14
-37
-77
-103
-113
-118
-110
-99
-96
-99
-82
-61
-56
-51
-42
-30
-25
-30
-35
-25
-23
-25
-11
0
-4
0
14
11
9
14
18
21
23
18
18
21
16
23
37
33
25
35
47
47
37
37
47
44
35
40
37
28
30
33
44
35
-14
-42
-23
-33
-68
-59
-33
-47
-92
-169
-113
330
913
953
259
-413
-438
-198
-139
-113
-44
-35
-37
-21
-23
-25
-16
-9
9
33
42
49
75
110
141
172
198
217
233
252
269
271
250
207
153
99
42
-9
-47
-80
-99
-99
-94
-84
-82
-84
-77
-63
-66
-61
-44
-37
-35
-42
-47
-28
-23
-30
-16
-4
-14
-9
2
-16
-51
-54
-33
-30
-40
-33
-18
-16
-23
-11
2
-4
-7
9
21
11
0
0
11
21
35
61
70
37
-4
-7
11
9
-2
0
9
-4
-75
-139
80
653
1064
745
-56
-446
-236
-70
-73
-2
61
51
47
51
40
33
40
54
66
75
77
87
113
141
160
188
224
243
247
259
276
264
226
181
129
63
-4
-56
-82
-113
-153
-162
-141
-136
-141
-125
-122
-129
-118
-96
-84
-75
-66
-51
-40
-42
-37
-21
-7
-4
-7
-4
2
7
7
11
16
11
9
21
25
21
21
33
33
25
25
33
28
18
40
70
66
23
2
18
7
-30
-30
-11
-35
-110
-207
-160
254
861
1017
382
-365
-436
-174
-110
-87
-4
18
18
42
51
44
44
44
44
66
82
63
54
94
136
153
181
217
231
238
254
261
243
200
141
87
28
-28
-61
-77
-99
-110
-96
-80
-70
-75
-80
-56
-35
-42
-44
-28
-25
-25
-7
9
9
7
11
0
-23
-18
4
4
-7
2
18
21
16
18
25
23
23
28
40
44
35
35
54
56
42
28
23
28
47
75
96
75
18
-2
18
7
-28
-21
-7
-25
-75
-155
-61
441
1047
1054
292
-372
-318
-92
-75
-35
33
23
16
33
28
18
25
35
49
68
80
92
118
148
177
195
207
210
219
238
250
247
224
181
136
84
25
-30
-68
-84
-94
-96
-89
-82
-80
-73
-59
-56
-66
-63
-47
-37
-30
-18
-7
0
-2
2
14
23
23
25
30
30
30
40
47
37
28
35
44
25
-9
-9
7
4
2
18
33
21
7
9
11
-9
-23
-2
18
23
9
-25
-44
-30
-42
-68
-61
-44
-47
-87
-186
-134
332
981
1095
370
-384
-396
-139
-113
-82
-4
-11
-35
-28
-28
-30
-18
-4
2
14
25
47
66
80
101
129
160
179
191
202
214
207
186
160
110
40
-23
-66
-99
-127
-141
-143
-151
-179
-191
-172
-162
-160
-136
-113
-103
-96
-80
-68
-61
-51
-37
-25
-25
-42
-44
-25
-23
-28
-11
-2
-9
-4
9
11
7
11
21
25
25
30
33
18
14
28
42
44
37
35
47
56
61
80
103
110
89
44
23
40
44
37
44
49
44
16
-75
-75
325
979
1187
556
-238
-342
-89
-42
-25
59
56
0
-7
14
14
18
37
51
61
80
103
120
118
120
153
195
219
238
252
259
264
257
231
191
129
59
9
-21
-51
-82
-94
-87
-80
-80
-68
-51
-44
-44
-33
-18
-14
-7
7
11
7
14
30
37
28
23
33
37
33
40
49
30
-11
-23
0
2
-9
-16
-18
-14
-11
-2
9
4
0
11
21
11
9
16
16
-2
-16
4
2
-61
-99
-73
-66
-89
-89
-70
-70
-92
-158
-207
30
606
1000
649
-160
-523
-323
-181
-169
-94
-49
-56
-44
-42
-51
-40
-30
-33
-16
-2
4
25
56
87
120
139
158
184
205
224
233
226
198
160
108
37
-33
-84
-110
-118
-125
-127
-120
-118
-115
-99
-77
-70
-68
-56
-40
-30
-30
-33
-44
-70
-92
-82
-51
-47
-54
-42
-25
-28
-30
-14
-4
-21
-23
-4
4
0
-2
4
14
16
16
23
33
33
40
63
84
89
68
33
23
47
59
51
54
56
49
-4
-108
4
538
1059
903
125
-408
-287
-87
-80
-21
63
66
70
101
101
94
113
136
148
160
165
167
184
202
202
200
212
228
243
261
273
259
228
186
115
11
-66
-106
-141
-172
-174
-162
-158
-151
-139
-125
-115
-103
-89
-77
-75
-66
-44
-30
-28
-28
-28
-25
-42
-61
-47
-33
-42
-40
-25
-16
-18
-23
-33
-37
-35
-25
-14
-11
-21
-18
-4
0
4
30
49
35
-4
-14
4
2
-9
4
18
7
-51
-160
-139
269
875
1026
387
-372
-455
-200
-165
-155
-59
-35
-51
-33
-14
-9
4
16
25
47
59
44
54
96
110
99
113
146
165
165
165
174
169
134
80
23
-37
-89
-115
-132
-153
-162
-153
-143
-136
-125
-106
-92
-87
-77
-56
-42
-33
-23
-14
-11
-9
2
18
23
14
18
37
37
9
-4
11
21
14
21
30
33
28
23
28
35
30
30
40
42
47
63
94
110
96
61
49
66
73
68
63
42
16
-2
-84
-94
287
939
1168
559
-240
-368
-122
-73
-59
21
35
23
47
68
77
89
103
122
136
146
165
191
210
221
240
266
278
278
287
297
290
271
245
193
118
37
-16
-51
-75
-92
-103
-113
-115
-103
-84
-75
-70
-59
-49
-42
-30
-18
-11
-23
-54
-56
-30
-21
-25
-11
0
0
0
9
21
21
14
18
21
0
-30
-28
-21
-35
-35
-14
-4
-9
-9
2
11
14
30
59
77
75
49
21
30
49
47
47
56
59
44
-33
-99
162
795
1220
818
-84
-441
-191
-73
-92
-9
40
18
28
59
68
75
89
103
122
139
153
177
198
207
224
250
266
271
276
285
283
269
247
210
148
77
18
-14
-40
-63
-87
-101
-113
-134
-129
-103
-96
-99
-82
-61
-51
-49
-37
-28
-25
-18
-4
7
7
2
9
18
21
23
33
30
23
28
33
9
-16
-16
-14
-18
-14
2
9
4
2
11
21
28
30
33
40
54
75
96
84
37
21
47
59
54
54
54
51
4
-94
0
505
1099
1095
318
-363
-320
-94
-75
-37
28
28
35
59
54
51
75
84
70
68
94
118
132
155
181
198
207
221
233
245
247
243
226
188
129
61
-18
-101
-153
-162
-167
-202
-226
-202
-186
-188
-172
-146
-134
-127
-113
-99
-87
-77
-68
-56
-47
-42
-37
-25
-14
-18
-23
-14
-4
-2
4
9
-2
-11
0
11
9
7
9
9
14
18
28
35
30
28
33
35
40
47
47
47
40
30
30
2
-35
-18
11
14
14
16
11
-16
-103
-84
323
915
1003
320
-379
-405
-165
-115
-82
-9
-4
0
35
47
42
56
77
92
106
122
136
151
177
205
217
226
236
238
247
257
252
226
186
132
68
14
-30
-77
-115
-125
-122
-129
-125
-106
-103
-106
-87
-63
-66
-66
-54
-42
-35
-23
-14
-11
-14
-9
2
9
0
-7
-7
-11
-18
-33
-42
-42
-66
-96
-77
-56
-63
-59
-42
-37
-35
-23
-11
-14
-18
-7
18
30
40
51
33
-7
-7
18
28
25
23
23
18
-59
-141
92
686
1078
719
-68
-413
-231
-99
-80
2
40
33
54
70
68
82
103
115
120
132
151
174
191
212
245
266
273
280
290
292
273
243
217
177
99
11
-47
-129
-236
-269
-238
-236
-243
-226
-212
-205
-193
-167
-153
-155
-146
-122
-113
-110
-106
-99
-89
-80
-80
-68
-59
-73
-89
-89
-82
-82
-84
-82
-80
-77
-70
-66
-68
-70
-68
-61
-59
-56
-54
-51
-49
-47
-35
-9
9
18
14
-14
-33
-14
4
4
4
7
-2
-63
-160
-51
469
1045
967
167
-443
-349
-136
-122
-61
21
11
11
44
44
11
16
49
59
66
101
132
148
169
195
212
226
245
254
250
231
224
219
186
122
59
4
-40
-75
-96
-96
-101
-108
-101
-82
-70
-68
-61
-49
-40
-33
-16
-2
0
-2
9
23
30
30
30
33
30
25
33
47
42
30
37
44
30
16
23
30
25
30
44
49
47
44
54
61
51
51
68
59
30
28
63
87
61
16
11
40
42
30
35
30
9
-33
-118
-47
431
1057
1113
365
-342
-313
-73
-59
-30
49
61
56
70
75
77
66
42
51
75
70
73
103
132
146
162
179
195
214
231
245
247
228
195
139
54
-16
-51
-84
-115
-127
-122
-113
-108
-106
-94
-75
-70
-63
-47
-35
-33
-28
-11
2
0
-2
-4
-14
-37
-54
-42
-30
-28
-21
-11
-2
0
-4
-2
9
11
16
23
23
21
33
40
44
44
42
47
49
42
54
70
68
73
99
113
82
21
-7
11
25
21
28
30
16
-23
-127
-129
280
929
1121
490
-287
-384
-120
-63
-59
16
37
21
33
37
30
40
54
66
84
99
99
113
143
169
191
217
238
233
210
214
236
231
195
151
96
40
-9
-49
-82
-99
-101
-94
-87
-87
-82
-70
-59
-49
-35
-23
-18
-16
-14
-11
-9
-14
-11
4
11
4
11
28
23
4
-9
-2
9
2
-2
9
16
14
21
28
21
21
35
37
33
35
40
40
42
44
40
40
49
51
33
0
-9
7
9
7
9
11
9
-59
-188
-75
469
1007
880
113
-436
-356
-188
-174
-110
-59
-77
-75
-49
-42
-37
-25
-23
-25
-4
21
40
56
80
108
136
158
174
200
205
181
167
172
139
68
4
-40
-89
-139
-165
-169
-177
-188
-184
-167
-158
-160
-158
-146
-146
-153
-134
-110
-110
-110
-94
-75
-66
-59
-51
-47
-44
-35
-23
-21
-25
-25
-14
-2
-4
-4
7
11
7
9
21
14
-23
-42
-14
7
-4
-4
18
28
-4
-49
-70
-70
-66
-59
-47
-40
-33
-54
-165
-205
141
762
998
469
-278
-453
-207
-108
-92
0
33
14
33
51
49
44
44
49
68
84
96
127
153
167
195
236
261
273
280
292
295
280
254
207
139
75
28
-9
-42
-63
-75
-75
-68
-59
-49
-44
-42
-35
-30
-35
-28
-14
-7
-7
-25
-49
-37
-25
-33
-21
2
9
2
-7
-23
-33
-25
-16
-9
-4
-2
7
14
11
14
23
30
28
30
44
51
56
61
42
4
-14
-23
-25
-14
-9
-7
-28
-115
-165
127
748
1080
613
-191
-438
-205
-108
-92
2
37
23
42
63
68
77
94
103
99
94
106
122
134
143
160
186
212
221
231
238
212
160
125
92
25
-56
-129
-179
-202
-214
-221
-221
-219
-207
-188
-172
-167
-160
-146
-129
-120
-115
-96
-80
-82
-70
-51
-47
-42
-30
-21
-21
-14
0
9
4
0
11
23
21
23
35
35
28
37
51
51
44
49
61
73
84
99
103
89
59
42
59
73
66
61
75
80
40
-63
-47
361
986
1149
507
-245
-332
-115
-73
-54
-7
-4
11
35
40
56
82
89
99
110
115
122
134
155
172
186
210
240
261
269
276
280
266
226
172
118
56
0
-33
-49
-68
-77
-75
-68
-61
-54
-44
-30
-23
-23
-16
-9
-16
-16
-2
2
4
14
21
28
25
18
25
37
35
28
37
42
35
35
49
54
30
9
23
37
35
33
40
28
-7
-18
9
30
28
23
0
-33
-49
-37
-23
-25
-23
-14
-35
-134
-125
280
922
1118
481
-299
-384
-139
-94
-61
23
30
21
49
59
59
77
103
110
110
118
141
162
167
181
200
214
233
254
273
278
269
252
226
174
106
49
-2
-47
-73
-77
-99
-136
-139
-113
-99
-96
-87
-68
-56
-51
-54
-54
-47
-37
-35
-28
-14
-7
0
9
0
-35
-54
-30
-16
-25
-28
-16
-7
-7
0
11
16
14
18
30
30
28
28
37
40
37
35
33
28
42
68
87
82
49
21
30
47
44
49
54
42
25
-37
-113
87
682
1168
887
23
-422
-236
-96
-103
-25
28
16
30
56
54
47
56
73
94
113
125
136
153
169
181
195
221
240
250
264
278
269
233
193
141
47
-42
-77
-108
-165
-198
-177
-158
-162
-158
-136
-122
-120
-113
-94
-87
-82
-66
-47
-40
-37
-30
-18
-11
-9
0
9
4
-2
9
23
25
18
16
21
23
11
-4
-7
-23
-49
-37
-16
-16
-23
-23
-23
-42
-56
-42
-28
-30
-21
2
23
37
49
37
2
-9
14
30
23
21
30
35
-4
-108
-87
330
941
1064
405
-318
-389
-169
-125
-92
-14
-2
-2
21
35
44
68
89
94
96
108
120
122
136
162
181
195
224
250
266
271
264
254
233
172
89
28
-25
-75
-99
-118
-139
-143
-129
-115
-108
-101
-87
-75
-73
-61
-42
-30
-30
-28
-16
-7
0
9
16
11
7
11
23
30
28
23
28
37
35
33
33
21
4
9
25
14
-18
-23
-9
-23
-51
-47
-25
-23
-25
-7
16
25
42
51
16
-25
-7
25
21
14
18
9
-37
-139
-174
129
743
1057
587
-202
-462
-245
-127
-96
-9
18
9
42
61
56
75
99
99
94
103
120
134
146
169
202
224
236
261
285
290
285
273
247
205
139
63
7
-44
-89
-94
-87
-99
-103
-99
-99
-120
-127
-108
-110
-148
-148
-113
-99
-99
-84
-70
-63
-56
-47
-35
-33
-37
-35
-42
-63
-68
-66
-80
-75
-61
-54
-49
-49
-51
-42
-25
-30
-33
-18
-21
-35
-25
-4
0
-2
4
25
35
0
-37
-28
-18
-35
-42
-35
-37
-61
-143
-219
9
608
1024
670
-151
-514
-295
-141
-139
-63
-4
-4
14
37
42
40
18
-4
9
37
51
68
96
127
153
181
214
240
250
252
245
214
174
132
77
16
-37
-75
-99
-115
-129
-125
-110
-106
-96
-77
-66
-63
-54
-40
-23
-16
-14
-4
11
18
18
25
30
35
42
44
49
49
37
35
44
47
47
51
51
49
54
63
66
63
63
68
73
77
77
70
66
70
84
99
106
113
106
75
35
28
51
63
37
-14
-35
-25
-87
-184
-11
564
1097
927
110
-415
-276
-94
-84
-23
23
4
7
30
35
42
63
75
82
99
122
141
158
181
210
231
254
278
287
287
290
290
273
226
158
94
37
-33
-101
-118
-115
-148
-177
-158
-134
-158
-174
-146
-127
-125
-108
-82
-73
-68
-59
-44
-33
-23
-14
-18
-37
-54
-44
-25
-23
-25
-16
-7
-21
-51
-51
-23
-25
-35
-16
-2
-2
-2
7
18
21
23
35
30
7
7
28
40
42
54
75
70
25
-7
16
37
25
23
40
44
23
-51
-110
141
759
1210
861
-25
-434
-212
-73
-89
-18
30
16
23
47
56
70
84
89
103
129
143
151
165
177
174
198
245
273
278
285
299
299
271
226
177
96
-2
-56
-70
-87
-103
-106
-96
-84
-80
-68
-49
-47
-44
-30
-11
-7
-16
-21
-14
-4
0
9
21
18
16
30
40
35
30
40
47
42
42
51
51
42
44
56
59
51
44
40
40
42
40
44
47
40
28
23
28
37
44
44
35
28
14
-11
-14
-2
4
4
-4
-9
-18
-89
-186
-35
526
1090
960
122
-443
-309
-146
-174
-106
-33
-42
-35
-9
-30
-66
-56
-21
-2
9
37
68
82
99
134
181
214
231
243
264
273
264
250
214
143
68
18
-25
-70
-99
-108
-118
-127
-122
-106
-101
-115
-113
-89
-80
-82
-80
-82
-101
-113
-99
-82
-84
-87
-75
-63
-66
-73
-70
-61
-61
-61
-56
-49
-49
-54
-44
-30
-35
-47
-40
-33
-35
-42
-42
-37
-56
-87
-70
-44
-42
-28
2
16
-7
-42
-40
-9
-9
-21
-18
-21
-35
-77
-169
-118
332
927
974
280
-384
-396
-167
-120
-87
-16
-7
-7
18
37
54
66
73
77
73
77
106
139
160
179
212
254
290
302
309
320
318
299
269
217
148
75
21
-9
-35
-54
-63
-80
-92
-80
-61
-51
-49
-44
-35
-18
-25
-54
-56
-30
-18
-21
-9
4
7
0
9
23
28
23
21
25
23
23
35
42
33
28
37
33
16
16
16
9
7
4
14
30
28
21
18
25
33
9
-25
-25
-4
7
14
18
18
-2
-87
-169
56
665
1062
660
-167
-495
-276
-155
-153
-63
-16
-23
4
33
33
33
54
75
94
108
125
143
169
198
228
264
290
302
313
332
325
285
238
191
132
63
11
-23
-54
-87
-103
-96
-89
-80
-54
-54
-77
-66
-37
-25
-16
-23
-40
-25
-9
-7
4
9
7
14
28
30
25
25
35
42
37
42
51
42
33
30
28
30
33
28
33
42
42
37
35
21
18
35
40
42
54
73
82
61
18
14
37
37
28
40
47
33
-21
-110
-21
450
1021
1019
238
-450
-394
-158
-141
-99
-21
-21
-16
9
21
30
44
37
37
73
94
103
132
162
184
207
238
269
287
292
302
309
290
247
191
113
35
-11
-35
-63
-84
-89
-82
-73
-63
-56
-49
-42
-35
-23
-14
-9
-4
0
7
18
23
30
35
33
30
42
54
51
47
47
51
47
33
35
37
7
-23
-9
9
2
0
11
14
2
2
9
-7
-40
-37
-9
-14
-35
-28
-4
-9
-47
-63
-40
-25
-37
-33
-14
-9
-44
-160
-202
132
776
1113
615
-250
-500
-240
-146
-151
-73
-47
-59
-37
-16
-9
0
9
14
35
56
63
77
106
125
139
167
200
219
221
221
214
202
179
132
68
0
-61
-94
-110
-129
-143
-141
-132
-143
-162
-151
-143
-167
-158
-120
-108
-106
-87
-73
-63
-51
-42
-30
-21
-16
-11
-11
-21
-18
-4
-2
-7
-2
7
18
18
14
18
30
35
37
42
33
18
23
37
37
28
25
35
49
54
68
92
96
63
25
30
47
28
14
28
35
16
-47
-139
-28
486
1069
1024
231
-410
-323
-101
-92
-49
14
-7
-49
-59
-44
-14
9
16
25
54
80
96
122
153
172
184
214
257
278
280
292
304
285
236
188
132
61
7
-21
-51
-75
-77
-70
-66
-61
-49
-35
-33
-37
-30
-9
4
7
9
11
18
23
16
16
28
21
18
33
33
25
23
25
2
-25
-21
-2
-11
-21
-4
14
14
-2
-23
-28
-33
-37
-23
-9
-9
-4
16
21
-33
-99
-103
-92
-96
-87
-66
-61
-75
-127
