1723818817.00
64.000000
-0.00
-0.00
-0.00
-0.00
-0.00
-0.00
-0.00
-0.00
-0.00
-0.00
0.00
0.01
0.01
-0.00
-0.03
-0.05
-0.05
0.00
0.13
0.36
0.66
1.01
1.37
1.72
2.06
2.40
2.79
3.24
3.80
4.42
5.06
5.66
6.20
6.68
7.15
7.68
8.31
9.14
10.09
11.04
11.88
12.56
13.14
13.76
14.65
15.96
17.91
20.32
22.90
25.38
27.58
29.57
31.68
34.32
37.81
42.54
48.15
54.10
59.83
64.97
69.58
74.14
79.34
85.71
93.76
103.00
112.62
121.73
129.77
136.75
143.30
150.75
157.77
166.64
177.95
191.79
206.97
220.57
228.25
225.36
208.53
176.87
132.76
80.05
23.07
-34.94
-92.44
-149.16
-205.23
-260.37
-313.74
-363.87
-409.83
-450.91
-486.50
-515.74
-537.23
-549.22
-549.96
-538.37
-514.21
-478.67
-433.88
-382.45
-327.02
-269.84
-212.63
-156.66
-102.95
-52.37
-5.90
35.58
71.43
101.35
125.50
144.38
158.69
169.15
176.37
180.75
182.57
182.07
179.51
175.23
169.65
163.18
156.15
148.81
141.30
133.69
126.02
118.33
110.69
103.16
95.80
88.68
81.83
75.25
68.95
62.95
57.25
51.86
46.78
42.03
37.59
33.45
29.61
26.07
22.81
19.83
17.11
14.67
12.48
10.54
8.83
7.35
6.07
4.97
4.05
3.27
2.62
2.09
1.65
1.30
1.01
0.79
0.61
0.48
0.37
0.29
0.24
0.20
0.18
0.17
0.17
0.18
0.20
0.23
0.26
0.30
0.34
0.38
0.43
0.47
0.52
0.57
0.61
0.66
0.71
0.76
0.81
0.87
0.93
0.99
1.07
1.15
1.25
1.37
1.50
1.66
1.83
2.03
2.26
2.51
2.80
3.11
3.45
3.82
4.23
4.66
5.13
5.62
6.14
6.70
7.29
7.91
8.56
9.25
9.98
10.73
11.53
12.36
13.25
14.18
15.17
16.20
17.28
18.35
19.38
20.29
21.00
21.38
21.31
20.68
19.38
17.37
14.62
11.17
7.08
2.52
-2.34
-7.27
-12.07
-16.51
-20.39
-23.51
-25.74
-26.97
-27.13
-26.20
-24.22
-21.23
-17.35
-12.73
-7.54
-2.01
3.64
9.18
14.35
18.90
22.64
25.43
27.20
27.93
27.70
26.66
25.04
22.98
20.72
18.52
16.64
15.35
14.84
15.32
16.93
19.80
23.71
28.47
33.87
39.66
45.61
51.47
57.11
62.51
67.86
72.95
77.84
82.66
87.53
92.54
97.71
103.08
108.72
114.82
120.96
126.94
132.50
137.25
140.62
141.75
139.54
132.38
123.01
112.40
101.35
90.47
80.02
69.92
59.84
49.40
38.51
27.55
16.61
6.17
-3.43
-12.19
-20.68
-29.77
-40.33
-52.72
-66.51
-81.18
-95.70
-109.19
-121.37
-132.57
-143.67
-155.78
-169.76
-186.00
-204.43
-223.69
-241.09
-252.84
-254.98
-244.72
-221.81
-188.86
-150.74
-113.09
-80.26
-54.35
-35.18
-21.33
-11.35
-4.34
0.11
2.40
3.38
4.33
6.34
10.00
15.09
20.52
24.89
26.78
24.94
18.89
9.13
-2.97
-15.31
-26.03
-33.98
-38.62
-40.59
-41.32
-41.84
-42.44
-42.68
-41.65
-38.94
-34.87
-29.88
-25.14
-21.83
-20.22
-19.90
-19.74
-18.60
-16.57
-14.00
-10.43
-6.12
-1.49
3.38
8.34
13.21
17.79
20.28
20.11
19.91
20.60
21.29
20.81
18.34
13.77
7.96
-0.93
-12.82
-21.88
-26.12
-27.41
-27.83
-29.50
-34.40
-44.43
-66.25
-102.29
-142.64
-179.63
-209.62
-230.15
-242.39
-251.42
-264.34
-292.78
-338.80
-384.61
-415.07
-423.57
-409.30
-378.03
-339.24
-258.43
-127.49
-15.01
63.19
123.77
168.68
196.98
208.85
207.57
199.00
182.42
158.29
137.70
124.78
118.83
122.69
140.79
175.21
222.79
270.01
304.24
325.96
337.16
340.51
341.57
344.19
347.82
348.07
336.70
310.29
276.62
243.77
216.55
196.74
181.92
167.03
147.32
119.46
84.97
51.13
23.95
5.37
-5.97
-14.11
-23.65
-37.69
-57.40
-81.27
-105.39
-126.26
-141.62
-150.39
-152.89
-150.27
-144.28
-136.32
-126.95
-116.10
-103.64
-90.10
-77.05
-66.42
-59.43
-55.97
-54.33
-52.34
-48.54
-42.71
-35.77
-29.03
-23.13
-17.88
-12.66
-6.92
-0.80
4.99
9.68
12.73
14.09
14.15
13.39
12.34
11.40
10.84
10.77
11.26
12.21
13.60
15.35
17.32
19.50
21.62
23.12
23.53
22.92
22.16
22.92
26.76
34.46
45.78
59.23
72.70
84.10
92.23
97.07
99.60
100.71
101.12
101.47
102.06
102.53
101.49
96.11
82.41
56.49
15.24
-40.05
-102.19
-159.96
-202.61
-224.72
-228.37
-221.58
-214.39
-216.23
-229.90
-250.58
-269.10
-277.50
-272.44
-254.71
-226.88
-191.45
-154.02
-119.47
-90.58
-67.99
-51.83
-41.89
-36.71
-33.62
-30.27
-30.96
-41.06
-63.08
-95.39
-135.03
-179.36
-226.04
-272.36
-284.72
-243.78
-158.01
-57.84
29.43
91.83
129.89
150.21
160.39
166.48
166.64
157.56
139.34
116.87
96.42
82.56
76.92
77.30
78.96
72.96
53.76
22.37
-12.58
-41.39
-57.77
-59.98
-50.98
-36.28
-23.75
-18.30
-19.70
-23.59
-25.53
-23.79
-19.23
-14.61
-12.41
-14.65
-21.05
-29.09
-35.07
-35.92
-33.35
-27.89
-19.66
-8.21
6.48
23.80
41.92
57.61
66.54
64.38
49.15
21.89
-12.90
-48.15
-76.63
-93.33
-97.09
-90.56
-78.52
-65.12
-52.77
-41.88
-31.74
-21.70
-11.79
-2.53
5.81
13.42
21.13
29.44
38.53
48.05
57.49
66.58
75.39
84.16
92.94
101.74
110.30
118.51
126.54
134.80
143.89
154.42
166.97
182.13
200.16
220.40
240.86
258.12
268.16
267.96
256.81
236.87
212.51
188.59
168.66
154.03
143.95
136.60
130.26
123.77
116.53
108.08
97.87
85.45
70.86
54.91
39.08
25.20
14.67
7.97
4.40
2.26
-0.36
-4.80
-11.17
-18.26
-24.07
-26.74
-25.35
-20.33
-13.25
-6.20
-1.09
0.89
-0.67
-5.46
-12.73
-21.37
-30.15
-37.80
-43.28
-46.07
-46.29
-44.71
-42.46
-40.80
-40.70
-42.61
-46.22
-50.47
-53.68
-54.02
-50.07
-41.37
-28.57
-13.42
1.76
14.79
24.07
29.01
29.91
27.65
23.31
17.85
11.81
5.51
-0.84
-6.96
-12.31
-16.21
-18.16
-18.06
-16.39
-14.07
-12.01
-10.82
-10.56
-10.91
-11.40
-11.83
-12.28
-13.08
-14.57
-16.81
-19.67
-22.83
-25.97
-28.85
-31.29
-33.02
-33.70
-32.88
-30.27
-25.90
-20.20
-13.92
-7.97
-3.09
0.35
2.35
3.22
3.31
2.85
1.96
0.67
-0.95
-2.66
-4.16
-5.21
-5.69
-5.64
-5.17
-4.33
-3.13
-1.54
0.37
2.33
3.91
4.70
4.49
3.48
2.14
1.07
0.67
0.93
1.39
1.38
0.40
-1.52
-3.62
-4.62
-3.23
1.33
8.93
18.72
29.69
41.25
53.45
66.79
81.50
97.18
112.81
127.17
139.30
148.44
153.53
152.91
144.43
126.48
99.24
65.03
27.66
-9.22
-43.85
-76.73
-109.70
-144.03
-178.80
-210.83
-236.06
-251.60
-257.10
-254.81
-248.13
-239.97
-231.56
-222.33
-210.67
-194.95
-174.19
-148.29
-117.71
-83.02
-44.67
-3.11
40.82
85.39
127.79
164.44
191.73
207.20
210.40
202.99
187.98
168.51
146.82
123.98
100.39
76.45
52.91
30.63
10.03
-9.19
-27.79
-46.35
-64.43
-80.39
-91.82
-96.55
-93.69
-84.09
-69.95
-54.00
-38.41
-24.22
-11.51
0.04
10.51
19.31
25.62
28.92
29.34
27.85
25.76
24.13
23.58
24.22
25.83
28.05
30.37
32.22
33.26
33.69
34.42
36.80
41.94
50.04
60.04
70.01
77.95
82.51
83.29
80.55
74.75
66.14
54.78
40.93
25.21
8.79
-6.88
-20.58
-31.50
-39.46
-44.86
-48.39
-50.99
-53.50
-56.47
-59.93
-63.31
-65.58
-65.60
-62.56
-56.28
-47.36
-37.00
-26.71
-17.93
-11.57
-7.80
-6.04
-5.11
-3.58
-0.24
5.70
14.45
25.67
38.61
52.28
65.58
77.54
87.32
94.42
98.70
100.29
99.59
97.18
93.63
89.55
85.38
81.36
77.40
73.25
68.60
63.50
58.48
54.39
52.13
52.25
54.61
58.47
62.73
66.30
68.47
68.94
67.64
64.48
59.13
50.96
39.33
23.83
4.48
-18.45
-44.91
-75.42
-111.04
-152.82
-200.85
-253.60
-307.96
-359.92
-405.71
-442.71
-469.76
-486.72
-493.90
-491.49
-479.50
-458.00
-427.63
-390.21
-348.78
-307.19
-269.42
-238.67
-216.63
-203.08
-195.89
-191.26
-184.42
-170.33
-144.89
-106.11
-54.90
4.98
67.85
127.73
179.84
221.46
251.93
272.06
283.63
289.00
290.68
290.67
289.79
287.25
281.09
269.29
250.94
226.91
199.56
171.54
144.73
119.80
96.49
74.49
54.02
35.93
21.26
10.70
4.09
0.63
-0.88
-1.53
-1.94
-2.22
-2.15
-1.52
-0.46
0.56
0.97
0.35
-1.21
-3.15
-4.70
-5.26
-4.64
-3.16
-1.38
0.13
1.04
1.35
1.31
1.23
1.38
1.87
2.57
3.25
3.59
3.28
2.20
0.42
-1.79
-3.97
-5.81
-7.20
-8.30
-9.61
-11.70
-14.97
-19.51
-24.84
-30.07
-34.11
-35.89
-34.76
-30.63
-24.02
-15.83
-7.25
0.68
7.25
12.24
15.90
18.72
21.16
23.49
25.63
27.35
28.48
29.01
29.14
29.19
29.34
29.59
29.80
29.79
29.56
29.23
28.98
28.91
28.91
28.70
28.01
26.67
24.67
22.13
19.22
16.05
12.72
9.36
6.08
3.01
0.18
-2.49
-5.17
-8.07
-11.34
-15.08
-19.33
-24.11
-29.23
-34.24
-38.37
-40.58
-39.93
-35.87
-28.46
-18.46
-6.98
4.69
15.40
24.32
30.90
34.90
36.35
35.54
32.98
29.35
25.38
21.74
18.91
17.14
16.54
17.09
18.62
20.97
23.88
27.01
29.94
32.27
33.61
33.76
32.80
31.00
28.78
26.52
24.33
22.07
19.44
16.16
12.27
8.06
4.01
0.57
-2.09
-4.13
-5.92
-7.87
-10.30
-13.33
-16.96
-21.02
-25.06
-28.41
-30.15
-29.38
-25.59
-18.90
-10.15
-0.62
8.38
15.97
21.79
26.00
28.91
30.77
31.67
31.58
30.53
28.83
26.94
25.38
24.54
24.49
25.01
25.75
26.32
26.52
26.32
25.84
25.25
24.64
23.95
23.04
21.70
19.81
17.44
14.77
12.05
9.50
7.20
5.09
3.00
0.69
-2.11
-5.57
-9.73
-14.42
-19.08
-22.95
-25.13
-24.96
-22.18
-17.02
-10.12
-2.36
5.46
12.67
18.82
23.64
27.00
28.88
29.41
28.82
27.41
25.53
23.47
21.42
19.55
17.93
16.61
15.65
15.05
14.79
14.81
14.99
15.13
14.99
14.35
13.08
11.25
9.03
6.73
4.60
2.73
1.07
-0.56
-2.43
-4.77
-7.77
-11.57
-16.03
-20.71
-24.75
-27.08
-26.76
-23.36
-17.21
-9.32
-1.03
6.48
12.47
16.77
19.61
21.34
22.20
22.32
21.74
20.53
18.91
17.16
15.60
14.48
13.83
13.56
13.41
13.17
12.72
12.11
11.46
10.87
10.28
9.46
8.16
6.22
3.72
0.93
-1.75
-4.07
-5.98
-7.73
-9.78
-12.52
-16.14
-20.40
-24.63
-27.95
-29.42
-28.44
-24.92
-19.24
-12.22
-4.77
2.28
8.33
13.11
16.57
18.80
19.93
20.11
19.43
17.99
16.01
13.78
11.70
10.15
9.34
9.21
9.46
9.69
9.67
9.39
9.01
8.70
8.45
8.01
7.05
5.38
3.12
0.64
-1.65
-3.54
-5.05
-6.48
-8.17
-10.34
-13.06
-16.30
-19.91
-23.67
-27.07
-29.41
-29.89
-27.95
-23.48
-16.98
-9.44
-1.95
4.60
9.79
13.58
16.16
17.75
18.48
18.38
17.52
16.09
14.37
12.74
11.50
10.78
10.53
10.52
10.51
10.35
10.06
9.76
9.59
9.54
9.49
9.22
8.53
7.41
5.97
4.36
2.72
1.07
-0.65
-2.47
-4.39
-6.30
-8.08
-9.67
-11.04
-12.24
-13.37
-14.62
-16.26
-18.58
-21.76
-25.60
-29.49
-32.46
-33.42
-31.68
-27.16
-20.46
-12.71
-5.08
1.50
6.53
9.95
11.96
12.88
13.05
12.69
11.98
11.07
10.06
9.09
8.32
7.86
7.75
7.90
8.12
8.19
8.02
7.63
7.22
6.98
6.95
6.99
6.81
6.15
4.91
3.21
1.31
-0.50
-2.03
-3.26
-4.32
-5.38
-6.64
-8.17
-9.95
-11.91
-13.91
-15.85
-17.64
-19.23
-20.68
-22.11
-23.62
-25.33
-27.15
-28.77
-29.66
-29.18
-26.79
-22.32
-16.12
-8.98
-1.89
4.31
9.10
12.42
14.49
15.58
15.83
15.32
14.08
12.30
10.34
8.64
7.54
7.11
7.11
7.14
6.88
6.22
5.34
4.58
4.22
4.31
4.66
4.87
4.61
3.75
2.37
0.81
-0.67
-1.90
-2.91
-3.89
-5.00
-6.30
-7.74
-9.19
-10.50
-11.65
-12.69
-13.74
-14.94
-16.31
-17.86
-19.58
-21.42
-23.24
-24.75
-25.44
-24.73
-22.18
-17.70
-11.73
-5.09
1.28
6.58
10.38
12.67
13.64
13.58
12.71
11.19
9.23
7.11
5.13
3.61
2.71
2.46
2.68
3.08
3.34
3.24
2.72
1.90
1.04
0.39
0.04
-0.10
-0.26
-0.74
-1.70
-3.16
-4.91
-6.66
-8.16
-9.30
-10.17
-11.01
-12.14
-13.76
-15.96
-18.55
-21.18
-23.37
-24.57
-24.30
-22.29
-18.50
-13.22
-7.06
-0.76
4.90
9.36
12.34
13.82
13.98
13.07
11.32
8.99
6.38
3.75
1.42
-0.45
-1.80
-2.69
-3.22
-3.46
-3.41
-3.05
-2.53
-2.14
-2.22
-3.05
-4.58
-6.47
-8.22
-9.39
-9.90
-9.95
-10.00
-10.45
-11.52
-13.21
-15.39
-17.82
-20.21
-22.18
-23.20
-22.66
-20.15
-15.63
-9.52
-2.69
3.90
9.36
13.15
15.12
15.45
14.49
12.71
10.51
8.16
5.85
3.66
1.67
0.03
-1.18
-1.91
-2.22
-2.36
-2.58
-3.05
-3.79
-4.68
-5.57
-6.46
-7.49
-8.85
-10.61
-12.59
-14.48
-15.98
-17.05
-18.02
-19.39
-21.54
-24.47
-27.59
-29.93
-30.53
-28.77
-24.66
-18.79
-12.14
-5.64
-0.00
4.41
7.56
9.54
10.47
10.47
9.61
8.05
6.07
3.94
2.02
0.56
-0.33
-0.66
-0.57
-0.24
0.18
0.53
0.72
0.71
0.40
-0.24
-1.24
-2.65
-4.38
-6.34
-8.40
-10.42
-12.31
-14.08
-15.84
-17.80
-20.21
-23.11
-26.25
-29.00
-30.47
-29.85
-26.74
-21.35
-14.46
-7.19
-0.49
5.07
9.41
12.74
15.20
16.82
17.47
17.07
15.74
13.87
11.93
10.38
9.42
9.00
8.93
9.00
9.03
9.01
8.96
8.94
8.97
8.98
8.78
8.20
7.02
5.17
2.77
0.06
-2.63
-5.04
-7.03
-8.66
-10.15
-11.80
-13.94
-16.72
-20.16
-23.92
-27.36
-29.67
-30.01
-27.85
-23.17
-16.53
-8.87
-1.24
5.58
11.17
15.51
18.80
21.18
22.71
23.38
23.13
22.02
20.29
18.23
16.09
14.12
12.39
10.96
9.81
8.93
8.22
7.52
6.60
5.31
3.68
1.86
0.21
-1.02
-1.73
-2.08
-2.38
-2.91
-3.82
-5.08
-6.57
-8.18
-9.88
-11.66
-13.48
-15.27
-16.95
-18.56
-20.34
-22.58
-25.40
-28.61
-31.57
-33.33
-33.01
-30.06
-24.56
-17.17
-8.92
-0.87
6.14
11.69
15.65
18.08
19.15
19.06
18.11
16.73
15.36
14.43
14.14
14.42
14.99
15.52
15.78
15.84
15.97
16.46
17.45
18.80
20.12
20.98
21.00
20.06
18.26
15.84
13.15
10.56
8.28
6.41
4.91
3.51
1.92
-0.05
-2.47
-5.12
-7.66
-9.79
-11.43
-12.69
-13.94
-15.60
-17.98
-21.26
-25.28
-29.62
-33.58
-36.24
-36.74
-34.56
-29.67
-22.63
-14.38
-5.97
1.75
8.26
13.38
17.11
19.54
20.74
20.75
19.72
17.98
15.95
14.18
13.15
13.09
13.94
15.33
16.77
17.86
18.46
18.70
18.88
19.21
19.68
20.02
19.87
18.96
17.33
15.24
13.14
11.38
10.01
8.85
7.54
5.81
3.61
1.14
-1.29
-3.43
-5.15
-6.56
-7.81
-9.09
-10.57
-12.38
-14.69
-17.66
-21.37
-25.65
-29.99
-33.55
-35.39
-34.70
-31.15
-25.03
-17.19
-8.77
-0.82
5.97
11.37
15.49
18.52
20.57
21.56
21.49
20.50
18.98
17.55
16.71
16.67
17.33
18.31
19.26
20.00
20.56
21.07
21.59
22.06
22.24
21.97
21.15
19.92
18.50
17.14
16.00
15.06
14.17
13.08
11.59
9.60
7.20
4.59
1.99
-0.44
-2.66
-4.77
-6.81
-8.85
-10.89
-12.96
-15.24
-18.01
-21.49
-25.64
-29.98
-33.57
-35.30
-34.23
-30.02
-23.10
-14.59
-5.85
1.90
7.97
12.29
15.11
16.83
17.68
17.74
17.03
15.68
13.97
12.31
11.03
10.37
10.41
11.09
12.27
13.78
15.36
16.71
17.58
17.78
17.31
16.36
15.15
13.87
12.59
11.22
9.66
7.86
5.87
3.84
1.93
0.17
-1.54
-3.37
-5.53
-8.15
-11.28
-14.85
-18.70
-22.55
-26.01
-28.54
-29.59
-28.67
-25.58
-20.44
-13.76
-6.26
1.24
8.04
13.62
17.66
20.06
20.85
20.11
18.10
15.20
11.91
8.87
6.65
5.59
5.70
6.59
7.64
8.29
8.28
7.73
7.02
6.48
6.20
6.01
5.47
4.24
2.24
-0.34
-3.14
-5.77
-8.04
-9.95
-11.70
-13.57
-15.85
-18.75
-22.37
-26.62
-31.17
-35.46
-38.71
-40.05
-38.76
-34.46
-27.34
-18.15
-8.00
1.87
10.45
17.17
21.87
24.70
25.93
25.83
24.62
22.59
20.08
17.52
15.34
13.87
13.23
13.32
13.82
14.38
14.70
14.64
14.23
13.61
12.88
12.04
10.93
9.28
6.90
3.74
-0.05
-4.05
-7.90
-11.34
-14.32
-17.02
-19.72
-22.71
-26.17
-30.19
-34.66
-39.37
-43.82
-47.29
-48.87
-47.76
-43.47
-36.12
-26.43
-15.54
-4.67
5.15
13.23
19.27
23.24
25.30
25.79
25.19
23.99
22.64
21.43
20.43
19.57
18.81
18.16
17.74
17.68
17.96
18.38
18.62
18.34
17.38
15.76
13.66
11.28
8.76
6.15
3.45
0.60
-2.46
-5.76
-9.33
-13.16
-17.11
-21.02
-24.70
-28.07
-31.31
-34.76
-38.87
-44.02
-50.20
-56.89
-62.96
-66.77
-66.56
-60.94
-49.44
-32.89
-13.27
6.85
25.07
39.86
50.76
58.08
62.49
64.51
64.36
62.16
58.20
53.03
47.43
42.17
37.72
34.17
31.31
28.84
26.54
24.37
22.40
20.78
19.58
18.72
17.99
17.09
15.75
13.86
11.48
8.83
6.23
3.92
1.98
0.37
-1.09
-2.61
-4.32
-6.30
-8.48
-10.74
-13.04
-15.32
-17.66
-20.16
-22.94
-26.07
-29.64
-33.71
-38.36
-43.58
-49.02
-54.00
-57.48
-58.33
-55.72
-49.43
-39.96
-28.45
-16.28
-4.65
5.58
14.03
20.56
25.18
27.94
28.97
28.58
27.24
25.54
23.98
22.91
22.44
22.51
23.00
23.78
24.82
26.12
27.59
29.09
30.39
31.19
31.28
30.57
29.14
27.20
24.99
22.68
20.32
17.88
15.32
12.67
10.07
7.61
5.36
3.17
0.79
-1.94
-5.06
-8.37
-11.52
-14.23
-16.39
-18.12
-19.79
-21.89
-24.81
-28.77
-33.63
-38.90
-43.73
-47.12
-48.13
-46.14
-41.06
-33.30
-23.72
-13.35
-3.22
5.85
13.33
18.94
22.64
24.52
24.79
23.68
21.49
18.54
15.26
12.19
9.84
8.59
8.57
9.56
11.13
12.80
14.19
15.11
15.59
15.70
15.52
15.05
14.25
13.10
11.60
9.78
7.66
5.25
2.56
-0.38
-3.50
-6.67
-9.71
-12.54
-15.19
-17.81
-20.66
-23.99
-27.89
-32.26
-36.67
-40.39
-42.58
-42.42
-39.36
-33.37
-24.93
-14.99
-4.68
4.92
12.98
18.97
22.69
24.20
23.80
21.95
19.23
16.19
13.29
10.89
9.25
8.62
9.13
10.70
13.05
15.59
17.72
19.00
19.31
18.87
17.99
16.88
15.52
13.69
11.18
7.93
4.12
0.03
-4.06
-7.99
-11.75
-15.34
-18.78
-22.06
-25.25
-28.62
-32.53
-37.29
-42.91
-48.83
-53.96
-56.89
-56.38
-51.78
-43.32
-32.04
-19.45
-7.16
3.68
12.38
18.79
23.06
25.49
26.36
25.97
24.66
22.83
20.90
19.23
18.04
17.38
17.15
17.24
17.51
17.88
18.26
18.60
18.74
18.53
17.83
16.58
14.81
12.64
10.15
7.44
4.50
1.32
-2.07
-5.58
-9.07
-12.37
-15.39
-18.13
-20.70
-23.32
-26.31
-30.01
-34.65
-40.15
-46.00
-51.15
-54.26
-54.05
-49.79
-41.59
-30.45
-17.93
-5.69
5.06
13.71
20.20
24.81
27.86
29.54
29.98
29.41
28.15
26.68
25.50
24.93
25.03
25.65
26.50
27.34
28.07
28.73
29.41
30.15
30.78
30.95
30.28
28.44
25.44
21.62
17.57
13.82
10.67
8.00
5.33
2.20
-1.69
-6.20
-10.85
-15.13
-18.68
-21.44
-23.67
-25.73
-27.91
-30.50
-33.71
-37.69
-42.44
-47.60
-52.36
-55.50
-55.77
-52.31
-45.02
-34.63
-22.49
-10.15
1.16
10.66
18.21
24.07
28.57
31.99
34.43
35.88
36.35
35.99
35.09
34.11
33.42
33.27
33.76
34.78
36.14
37.62
39.00
40.04
40.50
40.17
38.93
36.83
34.05
30.93
27.82
24.92
22.23
19.61
16.88
13.93
10.86
7.87
5.17
2.86
0.77
-1.37
-3.85
-6.82
-10.15
-13.56
-16.72
-19.42
-21.70
-23.85
-26.21
-29.15
-32.93
-37.56
-42.79
-48.02
-52.28
-54.48
-53.59
-49.05
-41.07
-30.56
-18.92
-7.59
2.43
10.68
17.11
21.92
25.20
26.94
27.13
25.95
23.83
21.45
19.46
18.24
17.91
18.31
19.16
20.24
21.46
22.72
23.95
24.92
25.42
25.26
24.33
22.70
20.56
18.13
15.62
13.10
10.54
7.84
4.87
1.59
-1.97
-5.63
-9.16
-12.28
-14.86
-16.94
-18.82
-20.95
-23.79
-27.57
-32.15
-36.88
-40.73
-42.57
-41.44
-36.94
-29.34
-19.56
-8.83
1.51
10.48
17.49
22.39
25.37
26.71
26.68
25.53
23.50
20.88
18.09
15.56
13.69
12.75
12.71
13.39
14.41
15.39
16.04
16.26
16.04
15.50
14.72
13.73
12.46
10.82
8.68
5.95
2.69
-0.94
-4.66
-8.17
-11.32
-14.03
-16.47
-18.87
-21.50
-24.58
-28.24
-32.49
-37.13
-41.72
-45.44
-47.33
-46.45
-42.22
-34.74
-24.82
-13.73
-2.88
6.62
14.19
19.73
23.46
25.68
26.61
26.41
25.28
23.51
21.51
19.71
18.41
17.70
17.50
17.58
17.79
18.03
18.31
18.61
18.82
18.76
18.19
16.93
14.97
12.53
9.87
7.26
4.81
2.43
-0.10
-3.03
-6.51
-10.42
-14.44
-18.16
-21.21
-23.49
-25.21
-26.89
-29.15
-32.46
-36.92
-42.10
-47.10
-50.69
-51.74
-49.52
-43.91
-35.54
-25.45
-14.91
-5.03
3.50
10.43
15.72
19.57
22.15
23.61
24.18
24.14
23.82
23.55
23.58
24.03
24.97
26.34
28.00
29.77
31.36
32.53
33.13
33.13
32.60
31.64
30.30
28.48
26.09
23.06
19.55
15.87
12.42
9.44
6.93
4.58
2.00
-1.09
-4.75
-8.70
-12.55
-15.94
-18.71
-20.96
-22.95
-25.04
-27.61
-30.95
-35.20
-40.28
-45.74
-50.73
-54.13
-54.84
-52.13
-45.97
-36.99
-26.29
-15.16
-4.64
4.58
12.20
18.17
22.56
25.49
27.16
27.90
28.07
28.04
28.06
28.20
28.45
28.76
29.13
29.69
30.55
31.73
33.09
34.29
34.92
34.74
33.64
31.81
29.52
27.06
24.62
22.26
19.93
17.59
15.24
12.92
10.71
8.68
6.81
5.09
3.40
1.65
-0.30
-2.53
-5.09
-7.89
-10.84
-13.81
-16.64
-19.29
-21.79
-24.30
-27.13
-30.59
-34.88
-39.87
-45.02
-49.34
-51.60
-50.75
-46.28
-38.48
-28.37
-17.42
-7.02
1.93
9.07
14.50
18.48
21.18
22.62
22.86
22.03
20.56
18.99
17.78
17.13
16.98
17.06
17.13
17.09
16.99
16.97
17.12
17.39
17.70
17.83
17.57
16.82
15.49
13.69
11.67
9.70
8.07
6.91
6.08
5.25
4.07
2.28
-0.11
-2.81
-5.45
-7.70
-9.42
-10.71
-11.82
-13.03
-14.66
-16.98
-20.15
-24.14
-28.56
-32.65
-35.44
-35.98
-33.73
-28.82
-21.96
-14.25
-6.77
-0.27
4.93
8.83
11.56
13.18
13.71
13.17
11.71
9.67
7.50
5.56
4.12
3.22
2.82
2.84
3.25
4.02
5.09
6.31
7.47
8.31
8.68
8.57
8.13
7.51
6.88
6.27
5.56
4.59
3.20
1.35
-0.87
-3.20
-5.40
-7.27
-8.85
-10.34
-12.08
-14.41
-17.54
-21.38
-25.55
-29.36
-31.96
-32.57
-30.69
-26.30
-19.93
-12.46
-4.93
1.76
7.06
10.76
12.95
13.85
13.75
12.84
11.40
9.69
7.97
6.52
5.55
5.17
5.38
6.08
7.09
8.26
9.34
10.17
10.56
10.37
9.54
8.13
6.26
4.11
1.91
-0.25
-2.35
-4.43
-6.61
-8.90
-11.23
-13.47
-15.47
-17.18
-18.71
-20.25
-22.05
-24.33
-27.19
-30.56
-34.14
-37.34
-39.43
-39.64
-37.48
-32.93
-26.48
-19.00
-11.50
-4.78
0.70
4.79
7.59
9.27
9.99
9.94
9.34
8.48
7.70
7.28
7.30
7.75
8.43
9.10
9.61
9.88
9.94
9.92
9.84
9.70
9.41
8.84
7.93
6.70
5.26
3.75
2.30
0.97
-0.23
-1.38
-2.61
-4.03
-5.74
-7.78
-10.05
-12.37
-14.54
-16.42
-18.03
-19.59
-21.45
-23.97
-27.34
-31.33
-35.28
-38.20
-39.05
-37.10
-32.23
-25.00
-16.52
-8.03
-0.51
5.52
10.05
13.32
15.59
16.97
17.48
17.13
16.15
14.96
13.99
13.60
13.83
14.49
15.26
15.83
16.09
16.13
16.08
16.11
16.28
16.56
16.81
16.89
16.71
16.22
15.44
14.40
13.16
11.77
10.23
8.56
6.71
4.59
2.16
-0.65
-3.79
-7.14
-10.54
-13.84
-16.95
-19.91
-22.83
-25.81
-28.99
-32.41
-36.05
-39.83
-43.45
-46.38
-47.90
-47.28
-43.99
-38.01
-29.89
-20.65
-11.46
-3.24
3.46
8.55
12.22
14.70
16.13
16.62
16.32
15.56
14.77
14.33
14.39
14.79
15.11
14.99
14.32
13.32
12.41
11.93
11.95
12.18
12.17
11.52
10.11
8.13
5.90
3.81
2.06
0.72
-0.27
-1.00
-1.59
-2.12
-2.73
-3.54
-4.62
-5.97
-7.47
-8.91
-10.11
-10.98
-11.64
-12.41
-13.67
-15.77
-18.78
-22.40
-25.95
-28.55
-29.34
-27.77
-23.78
-17.76
-10.52
-3.06
3.74
9.20
13.04
15.29
16.18
16.09
15.26
13.86
12.02
9.88
7.67
5.74
4.40
3.86
4.12
4.95
6.06
7.18
8.10
8.67
8.78
8.30
7.15
5.38
3.16
0.81
-1.35
-3.19
-4.75
-6.18
-7.69
-9.36
-11.07
-12.65
-13.93
-14.86
-15.58
-16.37
-17.54
-19.33
-21.69
-24.26
-26.41
-27.30
-26.27
-22.99
-17.63
-10.84
-3.50
3.56
9.73
14.70
18.38
20.73
21.79
21.63
20.43
18.49
16.16
13.73
11.39
9.27
7.45
6.08
5.26
5.02
5.30
5.86
6.44
6.78
6.76
6.34
5.59
4.56
3.33
1.95
0.41
-1.27
-3.10
-5.10
-7.26
-9.53
-11.83
-14.04
-16.09
-18.00
-19.86
-21.84
-24.10
-26.67
-29.37
-31.82
-33.38
-33.42
-31.51
-27.51
-21.77
-14.93
-7.82
-1.20
4.39
8.70
11.69
13.51
14.37
14.48
14.10
13.44
12.70
12.05
11.62
11.50
11.77
12.46
13.53
14.85
16.21
17.34
18.03
18.11
17.56
16.50
15.10
13.53
11.89
10.20
8.40
6.46
4.36
2.19
0.09
-1.84
-3.51
-4.99
-6.49
-8.25
-10.48
-13.28
-16.55
-20.00
-23.12
-25.32
-26.05
-24.89
-21.73
-16.77
-10.57
-3.88
2.46
7.73
11.48
13.58
14.18
13.64
12.29
10.47
8.41
6.34
4.46
2.99
2.09
1.82
2.10
2.77
3.68
4.69
5.72
6.70
7.57
8.27
8.76
9.05
9.12
9.00
8.63
7.93
6.84
5.32
3.48
1.51
-0.41
-2.12
-3.59
-4.90
-6.19
-7.62
-9.30
-11.31
-13.72
-16.53
-19.62
-22.64
-25.03
-26.05
-25.12
-22.01
-16.93
-10.60
-3.91
2.29
7.44
11.36
14.13
15.94
16.89
17.03
16.31
14.77
12.60
10.19
8.01
6.49
5.84
6.01
6.69
7.53
8.23
8.68
8.91
9.08
9.28
9.49
9.57
9.27
8.39
6.85
4.78
2.50
0.43
-1.18
-2.25
-2.99
-3.82
-5.06
-6.95
-9.44
-12.34
-15.36
-18.19
-20.49
-21.88
-21.91
-20.18
-16.58
-11.38
-5.20
1.07
6.63
10.98
13.95
15.68
16.43
16.36
15.54
14.02
11.88
9.42
7.04
5.26
4.41
4.61
5.58
6.87
7.96
8.52
8.48
8.03
7.40
6.72
5.93
4.83
3.22
1.07
-1.47
-4.09
-6.58
-8.83
-10.99
-13.31
-16.03
-19.25
-22.80
-26.31
-29.19
-30.84
-30.69
-28.43
-24.08
-18.00
-10.88
-3.52
3.36
9.19
13.74
17.01
19.10
20.16
20.33
19.71
18.46
16.84
15.17
13.77
12.85
12.45
12.44
12.55
12.53
12.24
11.63
10.73
9.61
8.30
6.75
4.93
2.82
0.48
-1.97
-4.39
-6.67
-8.77
-10.74
-12.66
-14.68
-16.95
-19.61
-22.74
-26.21
-29.64
-32.33
-33.46
-32.30
-28.53
-22.42
-14.75
-6.60
1.02
7.50
12.57
16.34
19.01
20.69
21.39
21.12
20.00
18.38
16.77
15.62
15.25
15.65
16.53
17.48
18.15
18.35
18.13
17.67
17.11
16.57
15.99
15.25
14.20
12.71
10.77
8.48
5.96
3.39
0.93
-1.34
-3.38
-5.25
-7.02
-8.81
-10.71
-12.91
-15.59
-18.88
-22.76
-26.90
-30.63
-33.08
-33.38
-30.99
-25.90
-18.69
-10.35
-1.96
5.64
12.01
17.05
20.86
23.53
25.12
25.67
25.33
24.43
23.41
22.61
22.22
22.18
22.30
22.43
22.56
22.78
23.16
23.67
24.14
24.32
24.07
23.42
22.58
21.76
21.12
20.67
20.18
19.37
18.01
15.96
13.35
10.46
7.71
5.45
3.87
2.84
2.07
1.16
-0.19
-2.06
-4.33
-6.78
-9.18
-11.41
-13.45
-15.35
-17.27
-19.44
-22.15
-25.63
-29.81
-34.15
-37.71
-39.29
-37.90
-33.29
-25.93
-16.98
-7.84
0.32
6.82
11.56
14.79
16.89
18.13
18.69
18.64
18.11
17.31
16.50
15.91
15.65
15.70
15.95
16.30
16.72
17.24
17.91
18.70
19.49
20.08
20.22
19.80
18.85
17.50
15.96
14.46
13.11
11.96
10.94
9.95
8.86
7.64
6.29
4.95
3.70
2.64
1.75
0.90
-0.06
-1.28
-2.81
-4.52
-6.22
-7.73
-9.00
-10.11
-11.36
-13.08
-15.53
-18.78
-22.57
-26.35
-29.38
-30.84
-30.16
-27.10
-21.94
-15.34
-8.24
-1.55
4.00
8.07
10.66
11.98
12.34
11.99
11.10
9.85
8.43
7.07
6.02
5.46
5.42
5.80
6.41
7.03
7.48
7.68
7.59
7.27
6.81
6.29
5.81
5.34
4.87
4.33
3.69
2.99
2.34
1.83
1.51
1.34
1.11
0.60
-0.39
-1.90
-3.77
-5.68
-7.30
-8.42
-9.04
-9.39
-9.76
-10.39
-11.40
-12.77
-14.37
-15.97
-17.25
-17.77
-17.10
-14.96
-11.43
-6.95
-2.19
2.22
5.86
8.64
10.59
11.80
12.27
11.94
10.87
9.26
7.42
5.69
4.25
3.15
2.35
1.85
1.69
1.94
2.51
3.20
3.70
3.76
3.32
2.49
1.49
0.46
-0.52
-1.52
-2.60
-3.71
-4.78
-5.68
-6.41
-7.12
-8.05
-9.40
-11.28
-13.61
-16.19
-18.76
-21.01
-22.63
-23.31
-22.72
-20.72
-17.34
-12.87
-7.84
-2.83
1.60
5.01
7.09
7.72
6.94
5.02
2.46
-0.23
-2.49
-4.03
-4.82
-5.03
-4.90
-4.65
-4.37
-4.08
-3.79
-3.54
-3.37
-3.33
-3.42
-3.60
-3.86
-4.18
-4.63
-5.26
-6.09
-7.18
-8.48
-9.90
-11.39
-12.85
-14.27
-15.73
-17.35
-19.15
-20.96
-22.29
-22.52
-21.06
-17.68
-12.66
-6.76
-0.87
4.19
7.97
10.41
11.66
11.98
11.55
10.46
8.81
6.77
4.57
2.55
1.03
0.19
0.03
0.35
0.81
1.08
1.03
0.70
0.30
0.07
0.07
0.16
0.01
-0.64
-1.89
-3.61
-5.46
-7.13
-8.40
-9.28
-9.91
-10.55
-11.41
-12.66
-14.38
-16.53
-18.91
-21.09
-22.45
-22.33
-20.25
-16.13
-10.46
-4.11
1.88
6.63
9.67
11.00
10.98
10.06
8.74
7.30
5.95
4.80
3.86
3.17
2.72
2.46
2.39
2.52
2.86
3.36
3.94
4.43
4.72
4.72
4.39
3.78
2.93
1.86
0.59
-0.81
-2.23
-3.54
-4.67
-5.69
-6.75
-8.02
-9.57
-11.28
-13.01
-14.64
-16.22
-17.98
-20.09
-22.49
-24.75
-26.08
-25.69
-23.07
-18.28
-11.95
-5.08
1.32
6.57
10.41
12.92
14.32
14.90
14.82
14.23
13.28
12.23
11.34
10.82
10.80
11.20
11.82
12.43
12.81
12.90
12.72
12.33
11.86
11.35
10.80
10.16
9.37
8.32
7.02
5.45
3.72
1.99
0.47
-0.69
-1.39
-1.75
-1.96
-2.24
-2.78
-3.59
-4.57
-5.56
-6.43
-7.17
-7.83
-8.49
-9.25
-10.21
-11.49
-13.19
-15.39
-17.91
-20.28
-21.82
-21.80
-19.79
-15.83
-10.44
-4.48
1.20
6.03
9.77
12.47
14.28
15.30
15.58
15.16
14.15
12.77
11.33
10.16
9.55
9.62
10.34
11.47
12.67
13.57
13.99
13.96
13.71
13.55
13.62
13.88
14.10
13.95
13.24
11.98
10.35
8.56
6.80
5.11
3.49
1.92
0.41
-1.02
-2.37
-3.67
-4.97
-6.26
-7.52
-8.66
-9.61
-10.34
-10.85
-11.29
-11.81
-12.63
-13.97
-15.94
-18.44
-21.10
-23.30
-24.28
-23.43
-20.48
-15.65
-9.63
-3.29
2.56
7.35
10.88
13.20
14.47
14.89
14.54
13.50
11.92
10.06
8.26
6.89
6.17
6.13
6.66
7.48
8.39
9.23
9.89
10.30
10.38
10.03
9.20
7.95
6.47
5.02
3.78
2.83
2.11
1.39
0.48
-0.68
-2.09
-3.55
-4.82
-5.76
-6.37
-6.85
-7.51
-8.66
-10.44
-12.77
-15.36
-17.79
-19.57
-20.22
-19.37
-16.89
-12.87
-7.72
-2.09
3.30
7.81
11.04
12.86
13.42
12.98
11.89
10.41
8.80
7.21
5.69
4.27
3.02
2.06
1.59
1.78
2.64
3.96
5.33
6.28
6.51
5.96
4.82
3.44
2.08
0.87
-0.21
-1.31
-2.53
-3.85
-5.22
-6.59
-7.99
-9.48
-11.14
-12.91
-14.73
-16.51
-18.27
-20.11
-22.03
-23.86
-25.17
-25.33
-23.85
-20.48
-15.42
-9.25
-2.75
3.37
8.51
12.36
14.82
15.94
15.93
15.10
13.76
12.17
10.58
9.12
7.99
7.31
7.18
7.62
8.40
9.25
9.86
10.02
9.67
8.90
7.86
6.70
5.52
4.35
3.21
2.10
0.99
-0.18
-1.43
-2.78
-4.15
-5.42
-6.55
-7.54
-8.52
-9.67
-11.15
-13.09
-15.57
-18.54
-21.83
-25.04
-27.54
-28.66
-27.84
-24.84
-19.94
-13.82
-7.32
-1.25
3.88
7.91
10.92
13.05
14.48
15.27
15.48
15.22
14.65
14.06
13.69
13.70
14.13
14.82
15.52
16.03
16.26
16.24
16.13
16.03
15.90
15.58
14.84
13.51
11.66
9.50
7.35
5.50
4.04
2.87
1.73
0.37
-1.29
-3.20
-5.14
-6.94
-8.54
-10.07
-11.73
-13.81
-16.47
-19.72
-23.43
-27.21
-30.52
-32.65
-32.89
-30.78
-26.23
-19.74
-12.13
-4.40
2.61
8.43
12.88
16.03
18.02
18.99
19.12
18.62
17.77
16.89
16.20
15.79
15.67
15.76
16.00
16.36
16.78
17.16
17.43
17.50
17.36
17.06
16.63
16.07
15.29
14.20
12.76
11.05
9.30
7.77
6.61
5.82
5.20
4.48
3.40
1.89
-0.03
-2.21
-4.46
-6.61
-8.57
-10.27
-11.80
-13.29
-14.93
-17.01
-19.72
-23.08
-26.82
-30.38
-33.01
-34.02
-32.85
-29.32
-23.65
-16.37
-8.27
-0.15
7.26
13.42
18.01
20.97
22.43
22.63
21.89
20.55
18.94
17.36
16.06
15.21
14.86
14.95
15.37
15.96
16.51
16.90
17.03
16.91
16.63
16.24
15.80
15.27
14.53
13.47
12.03
10.26
8.31
6.37
4.57
2.94
1.43
-0.07
-1.59
-3.14
-4.63
-5.98
-7.18
-8.27
-9.37
-10.62
-12.17
-14.09
-16.46
-19.26
-22.30
-25.21
-27.36
-28.03
-26.62
-22.89
-17.11
-10.02
-2.60
4.22
9.76
13.72
16.08
16.98
16.68
15.49
13.72
11.74
9.87
8.35
7.35
6.93
7.08
7.71
8.67
9.70
10.57
11.07
11.14
10.90
10.54
10.26
10.06
9.79
9.21
8.11
6.46
4.39
2.13
-0.11
-2.23
-4.21
-6.08
-7.83
-9.46
-10.99
-12.56
-14.44
-16.82
-19.72
-22.77
-25.29
-26.41
-25.47
-22.21
-16.93
-10.36
-3.42
3.03
8.43
12.49
15.20
16.61
16.89
16.17
14.64
12.59
10.32
8.19
6.52
5.48
5.08
5.17
5.46
5.67
5.68
5.54
5.43
5.53
5.86
6.22
6.27
5.64
4.19
2.01
-0.55
-3.09
-5.30
-7.10
-8.58
-9.99
-11.57
-13.49
-15.88
-18.79
-22.24
-26.09
-30.02
-33.46
-35.68
-35.96
-33.81
-29.23
-22.68
-15.04
-7.27
-0.22
5.59
9.99
13.06
14.99
15.93
16.00
15.32
14.07
12.53
10.97
9.64
8.70
8.17
8.02
8.19
8.59
9.05
9.41
9.49
9.24
8.67
7.87
6.95
5.90
4.65
3.14
1.33
-0.69
-2.77
-4.79
-6.67
-8.41
-10.09
-11.85
-13.87
-16.37
-19.51
-23.27
-27.34
-31.11
-33.73
-34.41
-32.63
-28.35
-22.04
-14.50
-6.69
0.56
6.69
11.44
14.78
16.82
17.72
17.68
16.96
15.83
14.61
13.62
13.09
13.08
13.59
14.44
15.49
16.65
17.85
19.07
20.25
21.23
21.79
21.75
21.03
19.72
17.97
15.96
13.88
11.81
9.84
7.97
6.19
4.41
2.53
0.43
-1.93
-4.44
-6.96
-9.35
-11.60
-13.85
-16.38
-19.43
-23.12
-27.25
-31.34
-34.65
-36.37
-35.86
-32.91
-27.70
-20.88
-13.32
-5.80
1.02
6.80
11.43
14.90
17.27
18.64
19.12
18.87
18.12
17.12
16.11
15.33
14.94
15.07
15.74
16.83
18.15
19.46
20.54
21.30
21.74
21.95
21.99
21.87
21.49
20.77
19.61
18.00
16.06
13.98
11.97
10.21
8.71
7.38
5.96
4.18
1.87
-0.93
-4.02
-7.07
-9.81
-12.15
-14.15
-16.07
-18.17
-20.66
-23.65
-27.14
-30.92
-34.60
-37.52
-38.89
-38.02
-34.50
-28.42
-20.42
-11.48
-2.67
5.09
11.29
15.77
18.63
20.15
20.63
20.36
19.62
18.64
17.67
16.93
16.58
16.73
17.40
18.47
19.75
21.03
22.08
22.76
23.07
23.06
22.83
22.40
21.71
20.70
19.33
17.68
15.94
14.32
12.91
11.69
10.50
9.17
7.57
5.65
3.47
1.17
-1.11
-3.25
-5.12
-6.77
-8.25
-9.74
-11.43
-13.47
-15.97
-19.00
-22.55
-26.46
-30.31
-33.44
-35.04
-34.36
-31.01
-25.19
-17.61
-9.29
-1.27
5.70
11.20
15.12
17.52
18.53
18.33
17.20
15.54
13.78
12.29
11.36
11.07
11.37
12.12
13.07
14.07
14.97
15.70
16.28
16.68
16.83
16.63
15.91
14.62
12.89
10.96
9.14
7.61
6.36
5.16
3.72
1.87
-0.34
-2.62
-4.65
-6.23
-7.41
-8.45
-9.74
-11.64
-14.30
-17.65
-21.37
-24.95
-27.75
-29.11
-28.51
-25.70
-20.84
-14.43
-7.24
-0.11
6.26
11.41
15.10
17.32
18.15
17.76
16.38
14.32
11.95
9.66
7.78
6.53
5.94
5.90
6.18
6.60
7.00
7.32
7.57
7.73
7.79
7.73
7.52
7.08
6.33
5.16
3.46
1.26
-1.31
-3.97
-6.39
-8.36
-9.82
-10.95
-12.08
-13.61
-15.82
-18.83
-22.46
-26.25
-29.57
-31.71
-32.06
-30.28
-26.36
-20.69
-13.92
-6.80
-0.05
5.80
10.46
13.81
15.91
16.89
16.89
16.13
14.86
13.34
11.85
10.64
9.88
9.73
10.21
11.20
12.51
13.82
14.72
14.95
14.41
13.21
11.63
9.95
8.37
6.96
5.61
4.17
2.52
0.61
-1.53
-3.77
-5.97
-7.97
-9.71
-11.24
-12.72
-14.41
-16.59
-19.41
-22.88
-26.79
-30.70
-33.97
-35.89
-35.83
-33.42
-28.73
-22.20
-14.67
-7.02
-0.07
5.66
9.97
12.94
14.76
15.70
16.03
15.93
15.62
15.23
14.90
14.74
14.80
15.09
15.58
16.19
16.79
17.32
17.70
17.87
17.86
17.64
17.16
16.39
15.23
13.69
11.88
9.98
8.21
6.74
5.53
4.40
3.02
1.10
-1.43
-4.44
-7.56
-10.43
-12.77
-14.55
-15.92
-17.14
-18.48
-20.08
-22.07
-24.49
-27.34
-30.41
-33.19
-34.86
-34.51
-31.49
-25.73
-17.90
-9.12
-0.68
6.47
11.91
15.72
18.23
19.78
20.58
20.72
20.27
19.33
18.04
16.61
15.21
13.99
13.06
12.48
12.25
12.30
12.56
13.01
13.65
14.49
15.44
16.34
16.88
16.82
16.11
14.84
13.27
11.68
10.19
8.82
7.49
6.10
4.64
3.15
1.66
0.20
-1.31
-2.96
-4.81
-6.84
-8.94
-10.90
-12.58
-13.90
-14.94
-15.94
-17.20
-19.00
-21.47
-24.54
-27.88
-30.91
-32.91
-33.22
-31.37
-27.27
-21.30
-14.19
-6.80
0.03
5.74
10.07
12.96
14.53
14.95
14.42
13.23
11.75
10.32
9.24
8.59
8.30
8.23
8.31
8.50
8.91
9.61
10.58
11.68
12.65
13.26
13.37
12.96
12.07
10.78
9.19
7.39
5.56
3.80
2.24
0.83
-0.56
-2.11
-3.92
-5.99
-8.12
-10.04
-11.57
-12.67
-13.55
-14.53
-15.97
-18.03
-20.62
-23.33
-25.53
-26.54
-25.79
-23.03
-18.43
-12.50
-6.03
0.19
5.55
9.67
12.42
13.86
14.12
13.41
11.97
10.09
8.10
6.31
4.94
4.11
3.82
3.92
4.25
4.67
5.08
5.45
5.78
6.02
6.11
5.91
5.33
4.33
3.00
1.48
-0.05
-1.46
-2.75
-3.91
-5.03
-6.13
-7.25
-8.40
-9.62
-10.98
-12.62
-14.68
-17.27
-20.36
-23.68
-26.77
-28.98
-29.67
-28.40
-25.10
-20.11
-14.11
-7.91
-2.25
2.42
5.89
8.23
9.56
10.03
9.74
8.83
7.50
6.09
4.96
4.41
4.55
5.29
6.40
7.59
8.64
9.45
9.99
10.24
10.19
9.81
9.14
8.25
7.30
6.41
5.65
4.93
4.08
2.91
1.25
-0.89
-3.37
-5.92
-8.20
-9.98
-11.20
-12.04
-12.88
-14.18
-16.28
-19.26
-22.85
-26.43
-29.24
-30.53
-29.81
-26.94
-22.18
-16.07
-9.32
-2.67
3.26
8.03
11.43
13.48
14.35
14.28
13.59
12.54
11.38
10.32
9.50
9.06
9.04
9.41
10.10
10.97
11.91
12.78
13.46
13.83
13.81
13.34
12.47
11.29
9.92
8.47
7.00
5.55
4.17
2.89
1.71
0.61
-0.53
-1.89
-3.57
-5.62
-7.90
-10.19
-12.21
-13.81
-14.95
-15.81
-16.68
-17.88
-19.67
-22.10
-25.00
-27.89
-30.16
-31.15
-30.31
-27.39
-22.49
-16.12
-9.00
-1.96
4.24
9.14
12.60
14.76
15.96
16.52
16.66
16.45
15.89
15.03
14.04
13.18
12.72
12.82
13.44
14.37
15.38
16.26
16.95
17.43
17.72
17.79
17.56
16.99
16.09
14.94
13.68
12.46
11.36
10.34
9.30
8.10
6.65
5.05
3.47
2.14
1.21
0.62
0.07
-0.76
-2.14
-4.11
-6.42
-8.74
-10.74
-12.29
-13.51
-14.69
-16.18
-18.27
-21.07
-24.42
-27.92
-30.93
-32.73
-32.70
-30.49
-26.17
-20.19
-13.24
-6.15
0.40
5.91
10.13
12.95
14.41
14.63
13.85
12.44
10.82
9.43
8.54
8.21
8.30
8.59
8.91
9.21
9.56
9.99
10.48
10.88
10.98
10.64
9.83
8.68
7.40
6.19
5.14
4.28
3.53
2.79
2.02
1.19
0.28
-0.72
-1.90
-3.34
-5.04
-6.94
-8.82
-10.45
-11.69
-12.59
-13.38
-14.44
-16.04
-18.28
-20.98
-23.67
-25.76
-26.69
-26.03
-23.66
-19.71
-14.55
-8.69
-2.69
2.90
7.62
11.16
13.41
14.39
14.34
13.57
12.38
11.02
9.69
8.53
7.71
7.37
7.60
8.36
9.50
10.71
11.71
12.33
12.48
12.23
11.71
11.01
10.20
9.29
8.31
7.29
6.24
5.19
4.10
2.95
1.64
0.10
-1.71
-3.80
-6.07
-8.34
-10.39
-12.05
-13.25
-14.10
-14.89
-16.03
-17.83
-20.41
-23.59
-26.79
-29.28
-30.28
-29.28
-26.19
-21.36
-15.47
-9.32
-3.57
1.34
5.17
7.92
9.65
10.48
10.54
10.06
9.26
8.42
7.77
7.47
7.59
8.10
8.92
9.87
10.78
11.49
11.94
12.21
12.40
12.66
12.98
13.25
13.24
12.72
11.62
10.05
8.27
6.60
5.24
4.17
3.24
2.23
0.99
-0.50
-2.15
-3.87
-5.55
-7.13
-8.61
-9.98
-11.30
-12.72
-14.48
-16.81
-19.82
-23.27
-26.57
-28.88
-29.36
-27.55
-23.52
-17.84
-11.40
-5.05
0.59
5.20
8.73
11.25
12.85
13.61
13.68
13.26
12.61
11.97
11.50
11.24
11.11
11.04
11.01
11.06
11.31
11.84
12.66
13.68
14.72
15.56
16.03
16.02
15.53
14.65
13.53
12.29
11.01
9.72
8.38
7.00
5.63
4.26
2.89
1.42
-0.26
-2.16
-4.24
-6.28
-8.07
-9.44
-10.36
-10.96
-11.53
-12.41
-13.91
-16.25
-19.39
-23.04
-26.63
-29.40
-30.58
-29.65
-26.44
-21.28
-14.84
-7.95
-1.41
4.21
8.61
11.72
13.63
14.51
14.55
13.99
13.08
12.08
11.25
10.77
10.65
10.86
11.27
11.75
12.20
12.58
12.89
13.13
13.32
13.40
13.30
12.93
12.19
11.09
9.73
8.25
6.89
5.79
5.03
4.57
4.23
3.79
3.08
1.99
0.53
-1.19
-3.04
-4.86
-6.55
-8.13
-9.65
-11.25
-13.08
-15.27
-17.85
-20.72
-23.61
-26.06
-27.52
-27.40
-25.38
-21.43
-15.94
-9.66
-3.47
1.90
6.01
8.76
10.41
11.24
11.54
11.46
11.02
10.26
9.26
8.19
7.28
6.71
6.56
6.87
7.53
8.40
9.30
10.02
10.38
10.30
9.79
8.97
8.02
7.07
6.21
5.41
4.58
3.59
2.40
0.97
-0.64
-2.31
-3.93
-5.41
-6.73
-8.00
-9.38
-11.08
-13.21
-15.69
-18.24
-20.43
-21.78
-21.91
-20.62
-17.93
-14.07
-9.47
-4.63
-0.07
3.79
6.71
8.62
9.62
9.88
9.58
8.92
8.07
7.22
6.66
6.58
7.08
8.09
9.38
10.64
11.69
12.43
12.91
13.22
13.42
13.49
13.30
12.75
11.71
10.20
8.30
6.22
4.17
2.32
0.72
-0.73
-2.24
-4.00
-6.03
-8.16
-10.12
-11.63
-12.62
-13.28
-13.96
-15.09
-16.89
-19.38
-22.25
-24.97
-26.92
-27.51
-26.29
-23.17
-18.35
-12.38
-6.03
-0.09
4.81
8.32
10.45
11.47
11.77
11.70
11.52
11.32
11.13
10.94
10.77
10.68
10.72
10.88
11.19
11.59
12.08
12.69
13.39
14.14
14.81
15.23
15.24
14.80
13.97
12.93
11.87
10.87
9.94
8.97
7.84
6.53
5.12
3.72
2.46
1.37
0.36
-0.68
-1.89
-3.29
-4.84
-6.44
-7.96
-9.35
-10.65
-11.99
-13.53
-15.44
-17.81
-20.60
-23.66
-26.67
-29.09
-30.37
-29.93
-27.43
-22.96
-17.05
-10.57
-4.50
0.47
4.02
6.34
7.84
8.92
9.82
10.57
11.07
11.29
11.36
11.45
11.70
12.17
12.67
13.04
13.14
12.99
12.77
12.68
12.83
13.20
13.65
13.90
13.78
13.21
12.23
10.99
9.67
8.42
7.33
6.43
5.64
4.86
3.97
2.93
1.80
0.70
-0.22
-0.94
-1.52
-2.12
-2.91
-3.96
-5.22
-6.52
-7.71
-8.68
-9.48
-10.30
-11.37
-12.96
-15.18
-17.96
-20.96
-23.66
-25.46
-25.81
-24.39
-21.19
-16.55
-11.05
-5.39
-0.25
3.82
6.59
8.03
8.35
7.90
7.00
5.96
4.92
3.99
3.24
2.76
2.64
2.94
3.69
4.82
6.17
7.54
8.74
9.69
10.34
10.71
10.76
10.41
9.57
8.25
6.56
4.77
3.15
1.91
1.03
0.37
-0.38
-1.43
-2.79
-4.29
-5.65
-6.58
-7.03
-7.19
-7.39
-8.01
-9.23
-11.04
-13.21
-15.48
-17.57
-19.19
-20.04
-19.80
-18.19
-15.20
-11.14
-6.63
-2.37
1.10
3.60
5.31
6.51
7.44
8.08
8.24
7.75
6.62
5.08
3.59
2.58
2.34
2.91
4.07
5.51
6.91
8.03
8.82
9.32
9.62
9.82
9.89
9.75
9.31
8.55
7.56
6.52
5.59
4.79
3.99
2.89
1.24
-1.02
-3.68
-6.34
-8.55
-10.00
-10.62
-10.64
-10.46
-10.56
-11.38
-13.15
-15.87
-19.12
-22.23
-24.37
-24.80
-23.16
-19.54
-14.54
-8.97
-3.65
0.87
4.31
6.73
8.30
9.21
9.61
9.57
9.17
8.52
7.80
7.19
6.88
6.93
7.28
7.82
8.35
8.78
9.05
9.21
9.32
9.42
9.48
9.44
9.23
8.78
8.09
7.18
6.06
4.76
3.29
1.69
0.00
-1.71
-3.43
-5.10
-6.72
-8.22
-9.52
-10.60
-11.52
-12.48
-13.78
-15.69
-18.29
-21.40
-24.51
-26.93
-28.03
-27.37
-24.90
-20.95
-16.08
-10.94
-6.08
-1.83
1.70
4.53
6.81
8.63
10.03
11.01
11.53
11.63
11.47
11.26
11.25
11.55
12.07
12.57
12.82
12.68
12.30
11.95
11.92
12.29
12.83
13.19
13.03
12.26
11.02
9.62
8.35
7.32
6.47
5.61
4.55
3.20
1.56
-0.29
-2.22
-4.13
-5.91
-7.45
-8.74
-9.83
-10.90
-12.22
-14.01
-16.39
-19.24
-22.17
-24.59
-25.85
-25.40
-23.05
-18.98
-13.67
-7.88
-2.30
2.50
6.23
8.85
10.48
11.33
11.58
11.39
10.90
10.26
9.62
9.11
8.87
8.89
9.14
9.51
9.93
10.33
10.74
11.15
11.57
11.88
11.95
11.60
10.72
9.32
7.54
5.61
3.80
2.28
1.09
0.08
-0.94
-2.14
-3.53
-4.95
-6.20
-7.14
-7.84
-8.56
-9.65
-11.35
-13.62
-16.12
-18.26
-19.45
-19.26
-17.56
-14.54
-10.62
-6.32
-2.20
1.31
3.96
5.68
6.61
6.97
7.00
6.88
6.67
6.39
6.06
5.73
5.47
5.37
5.50
5.88
6.49
7.23
7.96
8.50
8.70
8.46
7.88
7.06
6.19
5.35
4.53
3.62
2.57
1.34
0.07
-1.10
-2.08
-2.86
-3.53
-4.29
-5.33
-6.82
-8.85
-11.30
-13.90
-16.21
-17.67
-17.80
-16.32
-13.24
-8.93
-3.97
1.00
5.45
9.02
11.59
13.18
13.85
13.74
12.94
11.59
9.93
8.23
6.80
5.93
5.71
6.11
6.92
7.83
8.57
9.01
9.14
9.05
8.84
8.60
8.31
7.87
7.22
6.30
5.16
3.88
2.60
1.38
0.29
-0.65
-1.46
-2.13
-2.72
-3.35
-4.19
-5.45
-7.33
-9.91
-13.07
-16.44
-19.45
-21.45
-21.92
-20.56
-17.47
-13.06
-7.94
-2.80
1.85
5.69
8.58
10.56
11.72
12.17
12.05
11.54
10.85
10.27
10.04
10.28
10.97
11.94
12.90
13.60
13.90
13.80
13.41
12.84
12.16
11.42
10.57
9.62
8.64
7.67
6.79
5.96
5.07
4.01
2.69
1.12
-0.54
-2.15
-3.59
-4.81
-5.86
-6.80
-7.68
-8.55
-9.47
-10.55
-11.94
-13.77
-15.98
-18.31
-20.22
-21.09
-20.41
-18.01
-14.13
-9.39
-4.54
-0.18
3.35
6.02
7.96
9.31
10.13
10.42
10.22
9.68
9.08
8.66
8.58
8.80
9.13
9.34
9.22
8.79
8.19
7.67
7.43
7.60
8.06
8.62
9.03
9.12
8.84
8.23
7.34
6.20
4.78
3.09
1.25
-0.55
-2.14
-3.42
-4.46
-5.41
-6.42
-7.50
-8.54
-9.36
-9.89
-10.24
-10.72
-11.73
-13.54
-16.06
-18.88
-21.23
-22.31
-21.57
-18.89
-14.64
-9.54
-4.33
0.40
4.32
7.33
9.43
10.59
10.85
10.28
9.11
7.69
6.36
5.39
4.90
4.83
5.09
5.58
6.22
6.97
7.72
8.33
8.66
8.60
8.13
7.37
6.46
5.53
4.69
3.94
3.21
2.47
1.68
0.90
0.23
-0.28
-0.67
-1.05
-1.65
-2.65
-4.15
-6.13
-8.43
-10.84
-13.10
-14.91
-15.96
-15.98
-14.79
-12.41
-9.12
-5.33
-1.52
1.93
4.80
6.99
8.51
9.34
9.45
8.82
7.57
5.90
4.18
2.74
1.84
1.53
1.72
2.21
2.84
3.51
4.14
4.73
5.17
5.30
5.03
4.32
3.30
2.19
1.12
0.18
-0.70
-1.64
-2.67
-3.71
-4.64
-5.37
-5.90
-6.35
-6.90
-7.71
-8.91
-10.53
-12.53
-14.76
-16.93
-18.61
-19.35
-18.77
-16.78
-13.58
-9.61
-5.46
-1.61
1.59
3.99
5.56
6.40
6.64
6.49
6.16
5.80
5.48
5.20
4.91
4.61
4.40
4.36
4.60
5.11
5.79
6.49
7.04
7.36
7.40
7.18
6.75
6.21
5.61
5.00
4.42
3.79
3.08
2.21
1.13
-0.11
-1.46
-2.84
-4.14
-5.28
-6.24
-7.07
-7.93
-9.12
-10.92
-13.49
-16.73
-20.17
-23.11
-24.81
-24.77
-22.94
-19.69
-15.61
-11.38
-7.42
-3.92
-0.91
1.65
3.74
5.28
6.23
6.65
6.67
6.54
6.44
6.47
6.64
6.89
7.20
7.55
8.00
8.58
9.27
9.99
10.61
11.03
11.18
11.03
10.57
9.79
8.68
7.32
5.78
4.22
2.76
1.39
0.06
-1.31
-2.74
-4.10
-5.23
-5.96
-6.29
-6.40
-6.62
-7.27
-8.59
-10.62
-13.15
-15.82
-18.17
-19.71
-20.04
-18.91
-16.28
-12.40
-7.75
-2.95
1.37
4.78
7.09
8.40
8.95
9.03
8.78
8.27
7.51
6.53
5.45
4.44
3.62
3.09
2.79
2.64
2.59
2.60
2.73
3.02
3.47
3.97
4.41
4.61
4.51
4.16
3.66
3.19
2.85
2.60
2.32
1.87
1.11
0.08
-1.11
-2.27
-3.29
-4.10
-4.76
-5.34
-5.99
-6.78
-7.82
-9.21
-10.92
-12.80
-14.53
-15.63
-15.65
-14.35
-11.73
-8.11
-3.99
0.15
3.91
7.08
9.62
11.48
12.70
13.24
13.10
12.38
11.25
9.92
8.65
7.64
7.00
6.82
7.05
7.62
8.33
9.01
9.47
9.63
9.55
9.33
9.11
8.89
8.57
7.96
6.92
5.45
3.73
2.00
0.48
-0.70
-1.60
-2.37
-3.13
-4.03
-5.13
-6.48
-8.13
-10.07
-12.17
-14.14
-15.59
-16.06
-15.21
-12.93
-9.42
-5.15
-0.68
3.43
6.77
9.11
10.41
10.75
10.31
9.31
7.96
6.50
5.06
3.84
2.93
2.43
2.35
2.65
3.18
3.73
4.17
4.38
4.43
4.40
4.29
4.02
3.40
2.32
0.81
-0.87
-2.43
-3.58
-4.32
-4.87
-5.51
-6.54
-8.10
-10.16
-12.65
-15.42
-18.22
-20.69
-22.35
-22.71
-21.50
-18.75
-14.84
-10.37
-5.96
-2.04
1.16
3.60
5.28
6.20
6.37
5.79
4.59
3.05
1.51
0.35
-0.18
-0.04
0.62
1.54
2.42
3.07
3.50
3.80
4.14
4.57
4.99
5.21
5.02
4.32
3.12
1.56
-0.22
-2.10
-4.02
-5.85
-7.49
-8.86
-9.96
-10.99
-12.25
-14.00
-16.26
-18.73
-20.84
-21.94
-21.52
-19.42
-15.80
-11.12
-5.95
-0.85
3.73
7.52
10.37
12.26
13.27
13.49
13.06
12.16
10.99
9.79
8.77
8.11
7.93
8.29
9.10
10.21
11.40
12.42
13.05
13.19
12.85
12.17
11.32
10.42
9.49
8.46
7.21
5.67
3.82
1.77
-0.36
-2.44
-4.39
-6.18
-7.91
-9.71
-11.75
-14.18
-16.97
-19.88
-22.45
-24.02
-24.05
-22.23
-18.66
-13.80
-8.36
-3.05
1.59
5.24
7.86
9.56
10.50
10.87
10.83
10.50
10.04
9.56
9.17
8.95
8.86
8.84
8.79
8.66
8.52
8.50
8.72
9.23
9.92
10.53
10.80
10.54
9.74
8.58
7.34
6.32
5.70
5.46
5.42
5.26
4.69
3.59
2.02
0.20
-1.57
-3.10
-4.29
-5.23
-6.07
-7.00
-8.19
-9.71
-11.52
-13.40
-14.98
-15.86
-15.65
-14.23
-11.75
-8.59
-5.23
-2.05
0.79
3.28
5.47
7.39
8.94
10.00
10.51
10.51
10.21
9.87
9.71
9.88
10.47
11.48
12.83
14.39
15.90
17.01
17.41
16.93
15.62
13.74
11.61
9.49
7.47
5.56
3.80
2.26
1.05
0.15
-0.62
-1.53
-2.83
-4.53
-6.37
-7.92
-8.89
-9.19
-9.08
-9.02
-9.45
-10.62
-12.46
-14.63
-16.57
-17.68
-17.49
-15.77
-12.62
-8.44
-3.82
0.71
4.71
7.97
10.41
12.02
12.80
12.77
12.01
10.73
9.24
7.86
6.83
6.21
5.92
5.76
5.55
5.23
4.86
4.58
4.52
4.73
5.15
5.61
5.87
5.73
5.03
3.76
2.06
0.11
-1.88
-3.71
-5.32
-6.67
-7.80
-8.79
-9.78
-10.92
-12.39
-14.28
-16.54
-18.87
-20.71
-21.43
-20.54
-17.90
-13.77
-8.77
-3.56
1.25
5.35
8.62
11.09
12.72
13.49
13.33
12.33
10.72
8.86
7.14
5.83
5.06
4.79
4.90
5.24
5.65
5.97
6.09
5.96
5.60
5.09
4.54
3.98
3.38
2.67
1.77
0.70
-0.46
-1.61
-2.71
-3.81
-5.06
-6.67
-8.81
-11.60
-14.97
-18.76
-22.59
-25.93
-28.19
-28.82
-27.45
-24.06
-19.00
-12.89
-6.49
-0.50
4.54
8.26
10.51
11.30
10.79
9.32
7.37
5.46
4.08
3.53
3.89
5.03
6.68
8.53
10.35
11.96
13.26
14.16
14.56
14.44
13.83
12.86
11.71
10.61
9.67
8.93
8.26
7.40
6.12
4.28
1.90
-0.77
-3.39
-5.70
-7.58
-9.12
-10.59
-12.30
-14.49
-17.22
-20.36
-23.55
-26.33
-28.13
-28.41
-26.85
-23.40
-18.38
-12.40
-6.21
-0.51
4.22
7.87
10.54
12.48
13.95
15.07
15.89
16.36
16.47
16.26
15.88
15.43
15.06
14.83
14.79
14.94
15.21
15.57
15.96
16.34
16.72
17.11
17.49
17.78
17.97
17.99
17.85
17.55
17.04
16.20
14.86
12.88
10.22
6.99
3.39
-0.36
-4.03
-7.49
-10.63
-13.43
-15.86
-17.91
-19.58
-20.87
-21.80
-22.51
-23.18
-24.09
-25.44
-27.27
-29.27
-30.93
-31.57
-30.68
-28.09
-24.03
-19.00
-13.59
-8.27
-3.29
1.24
5.27
8.68
11.28
12.93
13.54
13.20
12.20
10.85
9.55
8.59
8.14
8.24
8.80
9.63
10.52
11.31
11.90
12.30
12.53
12.55
12.27
11.58
10.43
8.98
7.52
6.37
5.74
5.56
5.58
5.45
4.93
3.99
2.77
1.45
0.11
-1.26
-2.74
-4.30
-5.80
-7.08
-8.00
-8.63
-9.23
-10.09
-11.42
-13.17
-15.00
-16.38
-16.75
-15.72
-13.22
-9.51
-5.10
-0.59
3.54
7.07
9.90
12.07
13.57
14.28
14.17
13.30
11.93
10.46
9.28
8.61
8.40
8.42
8.39
8.20
7.89
7.64
7.65
7.92
8.29
8.47
8.22
7.48
6.40
5.25
4.35
3.83
3.62
3.48
3.12
2.30
0.95
-0.84
-2.85
-4.82
-6.56
-7.97
-9.11
-10.14
-11.24
-12.60
-14.32
-16.39
-18.62
-20.71
-22.25
-22.82
-22.09
-19.93
-16.42
-11.93
-7.00
-2.16
2.07
5.43
7.80
9.22
9.81
9.73
9.14
8.27
7.33
6.57
6.11
6.00
6.16
6.48
6.83
7.19
7.57
7.96
8.37
8.73
8.96
8.97
8.74
8.22
7.40
6.32
5.07
3.82
2.71
1.82
1.07
0.22
-0.99
-2.72
-4.90
-7.26
-9.37
-10.95
-11.91
-12.43
-12.91
-13.71
-15.11
-17.14
-19.59
-22.03
-23.97
-24.94
-24.65
-23.06
-20.35
-16.88
-13.05
-9.20
-5.59
-2.42
0.20
2.19
3.63
4.68
5.59
6.55
7.62
8.65
9.44
9.84
9.82
9.58
9.34
9.27
9.39
9.64
9.92
10.18
10.44
10.71
10.89
10.80
10.24
9.08
7.42
5.49
3.69
2.27
1.35
0.83
0.49
0.05
-0.68
-1.74
-3.03
-4.37
-5.58
-6.61
-7.51
-8.44
-9.60
-11.08
-12.89
-14.92
-17.01
-18.95
-20.49
-21.32
-21.12
-19.61
-16.73
-12.72
-8.06
-3.38
0.79
4.13
6.56
8.22
9.32
10.00
10.36
10.42
10.21
9.78
9.22
8.64
8.14
7.80
7.60
7.57
7.69
7.97
8.48
9.21
10.05
10.83
11.29
11.23
10.61
9.53
8.18
6.80
5.49
4.32
3.25
2.24
1.24
0.29
-0.60
-1.36
-1.99
-2.51
-2.98
-3.51
-4.24
-5.29
-6.77
-8.71
-10.95
-13.17
-14.86
-15.47
-14.63
-12.27
-8.69
-4.50
-0.36
3.26
6.10
8.15
9.52
10.26
10.37
9.87
8.82
7.44
6.05
4.97
4.44
4.49
4.93
5.45
5.73
5.58
5.04
4.32
3.73
3.48
3.62
3.97
4.24
4.16
3.59
2.56
1.23
-0.23
-1.71
-3.15
-4.51
-5.79
-6.99
-8.11
-9.18
-10.36
-11.74
-13.43
-15.37
-17.30
-18.77
-19.30
-18.46
-16.14
-12.58
-8.26
-3.85
0.12
3.38
5.90
7.81
9.22
10.10
10.33
9.85
8.76
7.36
6.05
5.13
4.68
4.52
4.37
4.04
3.50
2.93
2.53
2.45
2.63
2.93
3.11
3.03
2.66
2.02
1.16
0.10
-1.20
-2.72
-4.41
-6.14
-7.72
-9.03
-10.08
-11.04
-12.17
-13.74
-15.86
-18.39
-20.89
-22.69
-23.18
-21.95
-19.00
-14.73
-9.81
-4.90
-0.46
3.30
6.40
8.88
10.72
11.84
12.16
11.78
10.95
10.04
9.39
9.22
9.47
9.97
10.40
10.48
10.04
9.03
7.60
6.13
5.13
5.11
6.36
8.67
11.41
13.66
14.52
13.46
10.47
6.00
0.71
-4.75
-9.94
-14.60
-18.64
-21.98
-24.63
-26.64
-28.15
-29.23
-29.95
-30.16
-29.60
-27.95
-25.03
-20.88
-15.84
-10.44
-5.21
-0.62
3.15
6.07
8.13
9.37
9.75
9.25
8.02
6.37
4.73
3.59
3.18
3.51
4.33
5.27
6.00
6.37
6.44
6.38
6.38
6.44
6.47
6.30
5.77
4.84
3.56
2.06
0.43
-1.23
-2.89
-4.47
-5.90
-7.10
-8.06
-8.91
-9.86
-11.23
-13.20
-15.77
-18.61
-21.12
-22.60
-22.46
-20.51
-16.96
-12.35
-7.41
-2.68
1.51
5.06
7.99
10.33
12.01
12.97
13.22
12.88
12.17
11.33
10.57
10.02
9.73
9.70
9.89
10.28
10.82
11.50
12.24
12.89
13.33
13.36
12.88
11.86
10.40
8.72
7.07
5.57
4.28
3.14
2.05
0.91
-0.36
-1.86
-3.70
-5.96
-8.63
-11.48
-14.09
-15.92
-16.52
-15.68
-13.46
-10.22
-6.38
-2.38
1.46
4.88
7.65
9.61
10.66
10.83
10.24
9.06
7.45
5.56
3.52
1.53
-0.15
-1.23
-1.51
-0.99
0.11
1.46
2.72
3.68
4.27
4.44
4.19
3.50
2.41
1.09
-0.21
-1.27
-2.02
-2.66
-3.55
-5.08
-7.37
-10.24
-13.17
-15.54
-16.81
-16.66
-15.01
-11.99
-7.85
-2.98
2.12
6.95
11.04
14.08
16.00
16.92
17.02
16.54
15.64
14.44
13.11
11.85
10.85
10.29
10.17
10.42
10.85
11.24
11.44
11.32
10.78
9.83
8.48
6.79
4.85
2.76
0.56
-1.70
-4.04
-6.53
-9.22
-12.22
-15.55
-19.03
-22.30
-24.81
-25.98
-25.38
-22.86
-18.67
-13.30
-7.39
-1.58
3.59
7.67
10.39
11.59
11.35
9.91
7.56
4.68
1.55
-1.57
-4.42
-6.76
-8.38
-9.15
-9.14
-8.63
-8.00
-7.64
-7.79
-8.52
-9.75
-11.35
-13.19
-15.16
-17.10
-18.84
-20.19
-21.03
-21.39
-21.51
-21.59
-21.77
-21.85
-21.42
-19.95
-17.08
-12.75
-7.36
-1.52
4.05
8.79
12.44
15.06
16.87
18.14
19.08
19.70
19.98
19.80
19.14
18.07
16.71
15.25
13.88
12.79
12.20
12.29
13.13
14.59
16.26
17.46
17.41
15.58
11.83
6.65
0.96
-4.17
-7.95
-10.09
-10.84
-10.82
-10.62
-10.75
-11.42
-12.68
-14.49
-16.62
-18.66
-20.01
-19.98
-18.05
-14.11
-8.48
-1.90
4.84
11.06
16.38
20.70
24.06
26.50
28.07
28.74
28.56
27.63
26.17
24.46
22.81
21.47
20.60
20.29
20.52
21.25
22.33
23.57
24.71
25.45
25.55
24.87
23.47
21.54
19.34
17.12
15.02
13.07
11.29
9.65
8.23
7.06
6.13
5.36
4.51
3.31
1.60
-0.63
-3.24
-5.97
-8.56
-10.86
-12.79
-14.36
-15.62
-16.68
-17.76
-19.13
-21.01
-23.44
-26.16
-28.58
-29.97
-29.62
-27.22
-22.90
-17.21
-10.94
-4.85
0.55
5.05
8.70
11.66
14.02
15.82
17.07
17.71
17.84
17.63
17.25
16.86
16.52
16.23
15.96
15.76
15.69
15.82
16.16
16.60
16.95
17.08
16.89
16.44
15.83
15.19
14.57
13.93
13.19
12.26
11.11
9.74
8.25
6.68
5.10
3.60
2.22
1.00
-0.09
-1.16
-2.38
-3.86
-5.63
-7.59
-9.50
-11.13
-12.31
-13.11
-13.76
-14.62
-15.98
-17.89
-20.12
-22.15
-23.39
-23.34
-21.78
-18.89
-15.05
-10.80
-6.57
-2.66
0.79
3.72
6.11
7.93
9.14
9.74
9.79
9.41
8.71
7.83
6.91
6.06
5.37
4.95
4.83
5.00
5.40
5.91
6.39
6.74
6.89
6.80
6.53
6.08
5.52
4.89
4.25
3.67
3.19
2.78
2.36
1.78
0.96
-0.06
-1.14
-2.04
-2.55
-2.66
-2.49
-2.30
-2.36
-2.82
-3.66
-4.76
-5.88
-6.78
-7.31
-7.45
-7.35
-7.35
-7.76
-8.82
-10.45
-12.26
-13.64
-13.98
-12.91
-10.47
-7.01
-3.12
0.65
3.93
6.59
8.59
9.96
10.71
10.81
10.24
9.10
7.59
6.01
4.63
3.67
3.23
3.24
3.58
4.07
4.53
4.84
4.96
4.88
4.64
4.30
3.95
3.66
3.46
3.36
3.33
3.30
3.15
2.77
2.13
1.25
0.26
-0.68
-1.45
-2.03
-2.51
-2.99
-3.56
-4.22
-4.92
-5.56
-6.12
-6.64
-7.16
-7.75
-8.42
-9.13
-9.88
-10.68
-11.52
-12.32
-12.89
-12.92
-12.16
-10.40
-7.72
-4.45
-1.07
1.92
4.12
5.38
5.76
5.46
4.75
3.83
2.79
1.69
0.52
-0.67
-1.74
-2.56
-2.98
-2.93
-2.51
-1.90
-1.30
-0.90
-0.76
-0.83
-1.03
-1.25
-1.44
-1.60
-1.75
-1.90
-2.07
-2.24
-2.46
-2.73
-3.09
-3.53
-4.06
-4.66
-5.32
-6.03
-6.77
-7.50
-8.17
-8.71
-9.10
-9.33
-9.43
-9.45
-9.45
-9.53
-9.84
-10.49
-11.54
-12.82
-13.95
-14.42
-13.79
-11.86
-8.80
-5.10
-1.42
1.68
3.84
5.04
5.42
5.26
4.75
3.97
2.95
1.74
0.47
-0.64
-1.37
-1.62
-1.48
-1.13
-0.82
-0.67
-0.64
-0.57
-0.31
0.17
0.73
1.22
1.49
1.47
1.26
0.95
0.65
0.44
0.34
0.36
0.43
0.43
0.26
-0.15
-0.80
-1.59
-2.41
-3.15
-3.80
-4.40
-5.01
-5.61
-6.10
-6.41
-6.48
-6.38
-6.34
-6.62
-7.47
-8.93
-10.79
-12.66
-13.99
-14.29
-13.30
-11.06
-7.93
-4.46
-1.18
1.48
3.35
4.44
4.91
4.89
4.54
3.93
3.12
2.20
1.31
0.62
0.25
0.22
0.44
0.78
1.09
1.34
1.57
1.82
2.12
2.40
2.51
2.36
1.97
1.44
0.92
0.57
0.39
0.30
0.20
-0.03
-0.36
-0.75
-1.15
-1.49
-1.78
-2.03
-2.26
-2.49
-2.74
-3.07
-3.53
-4.19
-5.03
-6.01
-6.98
-7.82
-8.46
-8.94
-9.39
-9.99
-10.88
-12.07
-13.43
-14.62
-15.24
-14.96
-13.59
-11.22
-8.20
-4.97
-1.95
0.55
2.43
3.69
4.43
4.79
4.82
4.63
4.30
3.97
3.77
3.82
4.13
4.57
4.99
5.15
4.95
4.34
3.47
2.55
1.86
1.58
1.76
2.30
3.02
3.73
4.29
4.63
4.70
4.45
3.84
2.88
1.70
0.57
-0.22
-0.47
-0.13
0.59
1.35
1.82
1.84
1.44
0.78
0.02
-0.80
-1.68
-2.67
-3.74
-4.80
-5.80
-6.78
-7.87
-9.20
-10.74
-12.18
-13.03
-12.84
-11.35
-8.71
-5.35
-1.77
1.60
4.52
6.94
8.84
10.15
10.83
10.85
10.30
9.39
8.32
7.30
6.41
5.70
5.13
4.68
4.29
4.00
3.83
3.83
4.09
4.60
5.29
6.01
6.52
6.67
6.42
5.84
5.08
4.28
3.51
2.75
1.93
1.02
0.03
-0.97
-1.93
-2.79
-3.53
-4.19
-4.82
-5.49
-6.27
-7.20
-8.32
-9.67
-11.24
-12.98
-14.72
-16.17
-16.98
-16.79
-15.42
-12.87
-9.38
-5.34
-1.27
2.36
5.16
6.92
7.65
7.53
6.84
5.89
4.88
3.91
3.03
2.29
1.80
1.68
1.91
2.36
2.80
2.98
2.86
2.54
2.24
2.14
2.23
2.31
2.07
1.29
-0.08
-1.88
-3.79
-5.57
-7.06
-8.26
-9.27
-10.24
-11.36
-12.77
-14.53
-16.51
-18.42
-19.79
-20.16
-19.18
-16.84
-13.41
-9.35
-5.13
-1.06
2.73
6.25
9.44
12.16
14.15
15.18
15.13
14.14
12.47
10.55
8.73
7.22
6.07
5.15
4.32
3.51
2.77
2.29
2.21
2.53
3.04
3.37
3.14
2.16
0.54
-1.38
-3.20
-4.69
-5.88
-7.03
-8.41
-10.21
-12.44
-15.03
-17.89
-20.93
-23.99
-26.71
-28.50
-28.71
-26.90
-22.99
-17.42
-10.99
-4.52
1.29
6.06
9.73
12.33
13.93
14.54
14.19
12.95
11.13
9.10
7.39
6.40
6.30
7.02
8.22
9.46
10.38
10.78
10.74
10.46
10.17
9.94
9.64
8.97
7.64
5.56
2.88
-0.05
-2.79
-5.12
-7.01
-8.66
-10.36
-12.41
-14.95
-17.99
-21.38
-24.74
-27.59
-29.29
-29.22
-26.97
-22.45
-16.04
-8.49
-0.70
6.44
12.37
16.80
19.74
21.30
21.64
20.90
19.29
17.18
15.04
13.39
12.63
12.80
13.66
14.83
15.84
16.42
16.50
16.12
15.43
14.53
13.47
12.25
10.88
9.34
7.62
5.71
3.65
1.48
-0.70
-2.79
-4.76
-6.69
-8.73
-11.08
-13.89
-17.19
-20.93
-24.91
-28.78
-32.08
-34.15
-34.34
-32.13
-27.36
-20.37
-11.93
-3.07
5.18
12.10
17.37
21.05
23.41
24.73
25.27
25.18
24.57
23.61
22.50
21.47
20.69
20.23
20.02
19.92
19.80
19.59
19.31
19.00
18.73
18.45
18.05
17.40
16.38
14.98
13.26
11.38
9.45
7.51
5.51
3.31
0.83
-1.98
-4.99
-8.05
-10.99
-13.71
-16.22
-18.66
-21.25
-24.20
-27.69
-31.62
-35.57
-38.79
-40.31
-39.32
-35.43
-28.82
-20.26
-10.77
-1.36
7.20
14.46
20.22
24.43
27.07
28.26
28.19
27.18
25.65
24.00
22.56
21.50
20.86
20.55
20.46
20.47
20.52
20.59
20.73
20.94
21.13
21.12
20.69
19.68
18.08
16.14
14.15
12.39
10.94
9.67
8.30
6.60
4.47
2.04
-0.42
-2.70
-4.67
-6.43
-8.22
-10.36
-13.11
-16.59
-20.67
-24.91
-28.56
-30.68
-30.43
-27.33
-21.45
-13.47
-4.45
4.47
12.40
18.82
23.60
26.76
28.40
28.58
27.39
25.04
21.96
18.74
15.95
14.03
13.14
13.14
13.68
14.33
14.77
14.83
14.53
14.05
13.58
13.22
12.97
12.61
11.89
10.60
8.63
6.06
3.14
0.17
-2.56
-4.92
-6.95
-8.83
-10.85
-13.25
-16.15
-19.53
-23.17
-26.67
-29.51
-31.00
-30.50
-27.56
-22.17
-14.78
-6.31
2.16
9.70
15.74
20.10
22.85
24.10
23.92
22.41
19.74
16.35
12.88
9.96
8.05
7.22
7.20
7.52
7.75
7.70
7.48
7.31
7.36
7.57
7.69
7.35
6.33
4.61
2.42
0.12
-2.01
-3.86
-5.53
-7.30
-9.52
-12.49
-16.41
-21.22
-26.55
-31.71
-35.75
-37.71
-36.91
-33.21
-27.04
-19.33
-11.19
-3.58
2.90
8.07
11.93
14.63
16.23
16.77
16.33
15.09
13.39
11.59
10.04
8.94
8.28
7.92
7.62
7.24
6.75
6.25
5.96
6.00
6.33
6.70
6.68
5.85
3.98
1.14
-2.33
-5.94
-9.23
-12.01
-14.30
-16.44
-18.79
-21.70
-25.33
-29.54
-33.88
-37.63
-39.91
-39.95
-37.33
-32.10
-24.98
-17.05
-9.48
-3.12
1.74
5.35
8.27
10.99
13.73
16.36
18.62
20.29
21.34
21.91
22.19
22.32
22.35
22.30
22.24
22.33
22.67
23.22
23.85
24.28
24.31
23.77
22.61
20.81
18.33
15.18
11.36
7.07
2.54
-1.92
-6.09
-9.91
-13.42
-16.74
-19.95
-23.15
-26.38
-29.69
-32.95
-35.84
-37.75
-37.95
-35.84
-31.20
-24.37
-16.15
-7.57
0.45
7.30
12.76
16.85
19.66
21.33
21.94
21.64
20.67
19.37
18.06
17.04
16.45
16.30
16.47
16.82
17.22
17.56
17.79
17.85
17.68
17.17
16.22
14.84
13.10
11.14
9.12
7.17
5.33
3.56
1.77
-0.10
-2.14
-4.36
-6.71
-9.11
-11.43
-13.59
-15.55
-17.39
-19.26
-21.39
-23.99
-27.10
-30.58
-34.02
-36.76
-38.12
-37.44
-34.35
-28.95
-21.73
-13.53
-5.28
2.22
8.48
13.33
16.81
19.03
20.09
20.00
18.87
16.89
14.52
12.29
10.73
10.16
10.60
11.74
13.18
14.52
15.51
16.15
16.53
16.79
16.96
16.99
16.72
16.06
15.00
13.64
12.22
10.95
9.96
9.21
8.53
7.68
6.49
4.89
3.00
1.01
-0.89
-2.63
-4.26
-5.91
-7.69
-9.62
-11.66
-13.77
-16.02
-18.50
-21.24
-24.00
-26.24
-27.26
-26.40
-23.34
-18.22
-11.67
-4.52
2.37
8.37
13.14
16.58
18.75
19.81
19.87
19.06
17.53
15.49
13.22
11.11
9.49
8.61
8.49
8.95
9.69
10.46
11.10
11.56
11.84
11.86
11.48
10.57
9.08
7.17
5.16
3.36
1.94
0.84
-0.18
-1.38
-2.90
-4.70
-6.57
-8.29
-9.71
-10.81
-11.73
-12.75
-14.13
-16.10
-18.68
-21.62
-24.42
-26.39
-26.90
-25.56
-22.31
-17.45
-11.50
-5.09
1.17
6.70
11.05
13.83
14.90
14.38
12.67
10.36
8.00
6.00
4.55
3.63
3.14
3.02
3.23
3.74
4.46
5.23
5.83
6.14
6.11
5.80
5.32
4.73
3.98
3.00
1.70
0.09
-1.76
-3.72
-5.66
-7.46
-9.08
-10.51
-11.78
-12.98
-14.26
-15.80
-17.82
-20.39
-23.36
-26.29
-28.50
-29.25
-27.95
-24.36
-18.76
-11.83
-4.49
2.35
8.03
12.21
14.86
16.16
16.38
15.76
14.52
12.88
11.04
9.18
7.46
5.99
4.79
3.86
3.16
2.68
2.35
2.09
1.82
1.49
1.11
0.78
0.54
0.41
0.23
-0.24
-1.20
-2.73
-4.69
-6.82
-8.83
-10.59
-12.06
-13.38
-14.71
-16.19
-17.94
-20.03
-22.53
-25.37
-28.27
-30.67
-31.89
-31.24
-28.37
-23.37
-16.79
-9.44
-2.24
4.10
9.14
12.76
15.09
16.36
16.79
16.56
15.79
14.55
13.00
11.37
9.97
9.07
8.84
9.27
10.16
11.21
12.11
12.63
12.66
12.19
11.29
10.05
8.60
7.08
5.56
4.09
2.66
1.16
-0.47
-2.25
-4.17
-6.12
-8.00
-9.75
-11.34
-12.90
-14.55
-16.48
-18.83
-21.65
-24.79
-27.86
-30.27
-31.29
-30.36
-27.21
-22.09
-15.69
-8.89
-2.53
2.82
7.04
10.26
12.71
14.54
15.71
16.13
15.80
14.86
13.67
12.60
11.93
11.70
11.80
12.02
12.22
12.36
12.46
12.55
12.61
12.57
12.33
11.84
11.10
10.19
9.17
8.10
7.01
5.86
4.59
3.14
1.45
-0.47
-2.52
-4.58
-6.46
-8.01
-9.22
-10.25
-11.39
-13.05
-15.50
-18.71
-22.32
-25.56
-27.55
-27.60
-25.35
-20.98
-15.10
-8.52
-2.10
3.57
8.15
11.52
13.76
15.00
15.37
15.01
14.08
12.75
11.26
9.91
8.92
8.42
8.46
8.90
9.60
10.35
11.00
11.48
11.80
12.04
12.23
12.37
12.35
12.08
11.44
10.48
9.32
8.12
6.99
5.90
4.74
3.41
1.94
0.43
-0.91
-1.98
-2.85
-3.76
-5.04
-6.98
-9.68
-12.96
-16.39
-19.20
-20.62
-20.02
-17.10
-12.08
-5.59
1.50
8.28
14.09
18.53
21.49
22.99
23.19
22.24
20.37
17.87
15.10
12.45
10.27
8.74
7.89
7.55
7.45
7.31
7.00
6.50
5.96
5.50
5.19
4.96
4.62
3.97
2.89
1.37
-0.47
-2.41
-4.29
-5.97
-7.46
-8.81
-10.18
-11.68
-13.47
-15.62
-18.14
-20.87
-23.48
-25.48
-26.30
-25.47
-22.75
-18.31
-12.65
-6.59
-0.99
3.50
6.51
8.07
8.44
7.94
6.84
5.24
3.21
0.92
-1.35
-3.28
-4.60
-5.35
-5.76
-6.16
-6.83
-7.78
-8.83
-9.76
-10.43
-10.91
-11.42
-12.17
-13.28
-14.70
-16.25
-17.70
-18.86
-19.68
-20.23
-20.79
-21.71
-23.24
-25.43
-27.91
-30.05
-31.06
-30.33
-27.63
-23.20
-17.64
-11.69
-6.04
-1.15
2.76
5.74
7.96
9.61
10.89
11.94
12.82
13.59
14.28
14.98
15.78
16.74
17.89
19.23
20.79
22.58
24.62
26.87
29.19
31.36
33.20
34.61
35.71
36.67
37.71
38.82
39.80
40.26
39.81
38.17
35.36
31.67
27.60
23.84
21.03
19.64
19.77
21.13
23.13
25.09
26.51
27.18
27.18
26.64
25.57
23.78
20.98
16.94
11.68
5.47
-1.22
-7.83
-13.83
-18.83
-22.56
-25.01
-26.33
-26.92
-27.27
-27.80
-28.80
-30.27
-31.97
-33.57
-34.69
-35.08
-34.72
-33.80
-32.60
-31.46
-30.74
-30.66
-31.47
-33.30
-36.15
-39.81
-43.73
-47.06
-48.86
-48.40
-45.41
-40.21
-33.62
-26.58
-19.92
-14.07
-9.08
-4.76
-0.95
2.36
5.05
6.97
8.09
8.60
8.83
9.12
9.64
10.34
10.96
11.19
10.86
9.98
8.77
7.58
6.63
5.98
5.49
4.93
4.07
2.85
1.32
-0.31
-1.86
-3.19
-4.27
-5.19
-6.13
-7.31
-8.99
-11.34
-14.33
-17.70
-20.79
-22.78
-22.85
-20.52
-15.82
-9.37
-2.10
5.03
11.24
16.16
19.76
22.17
23.59
24.19
24.01
23.10
21.56
19.58
17.51
15.74
14.62
14.34
14.80
15.71
16.68
17.40
17.72
17.74
17.59
17.39
17.11
16.61
15.62
13.98
11.64
8.74
5.60
2.60
0.04
-1.96
-3.50
-4.82
-6.15
-7.67
-9.43
-11.43
-13.68
-16.19
-18.91
-21.55
-23.56
-24.23
-22.94
-19.44
-14.06
-7.56
-0.87
5.16
10.05
13.65
16.07
17.42
17.81
17.29
15.96
14.05
11.94
10.01
8.57
7.77
7.62
7.96
8.58
9.26
9.86
10.25
10.41
10.33
10.03
9.48
8.57
7.23
5.43
3.29
1.10
-0.84
-2.31
-3.32
-4.08
-4.88
-5.92
-7.28
-8.90
-10.73
-12.72
-14.81
-16.75
-18.11
-18.32
-16.87
-13.68
-9.08
-3.77
1.42
5.87
9.23
11.44
12.62
12.92
12.45
11.35
9.83
8.14
6.53
5.22
4.25
3.56
2.99
2.42
1.82
1.25
0.87
0.83
1.16
1.73
2.34
2.69
2.59
1.96
0.83
-0.63
-2.19
-3.67
-4.94
-5.99
-6.96
-8.04
-9.46
-11.34
-13.64
-16.10
-18.26
-19.58
-19.56
-17.93
-14.69
-10.17
-4.90
0.52
5.49
9.57
12.46
14.06
14.43
13.81
12.52
10.96
9.49
8.33
7.57
7.13
6.80
6.39
5.72
4.74
3.50
2.18
0.96
-0.04
-0.84
-1.59
-2.51
-3.81
-5.56
-7.69
-10.04
-12.37
-14.44
-16.11
-17.34
-18.19
-18.83
-19.48
-20.24
-21.07
-21.64
-21.50
-20.24
-17.58
-13.62
-8.74
-3.56
1.32
5.39
8.48
10.60
11.92
12.61
12.73
12.27
11.24
9.73
7.99
6.34
5.03
4.16
3.66
3.35
3.09
2.81
2.48
2.13
1.75
1.30
0.76
0.21
-0.32
-0.78
-1.21
-1.74
-2.53
-3.64
-5.07
-6.73
-8.50
-10.20
-11.57
-12.28
-12.01
-10.49
-7.72
-3.97
0.25
4.32
7.73
10.21
11.71
12.37
12.31
11.62
10.36
8.62
6.60
4.64
3.02
1.97
1.52
1.52
1.75
2.02
2.20
2.24
2.11
1.78
1.23
0.49
-0.39
-1.29
-2.10
-2.80
-3.37
-3.90
-4.46
-5.14
-6.01
-7.17
-8.63
-10.30
-11.87
-12.86
-12.80
-11.39
-8.63
-4.90
-0.75
3.24
6.61
9.14
10.78
11.55
11.52
10.77
9.49
7.96
6.54
5.54
5.14
5.33
5.86
6.43
6.76
6.70
6.31
5.72
5.11
4.54
3.98
3.32
2.48
1.43
0.24
-0.94
-1.96
-2.70
-3.12
-3.27
-3.26
-3.26
-3.44
-4.01
-5.07
-6.60
-8.39
-10.01
-10.98
-10.85
-9.42
-6.81
-3.39
0.30
3.73
6.55
8.56
9.70
10.02
9.56
8.42
6.75
4.79
2.78
0.98
-0.44
-1.40
-1.90
-1.99
-1.77
-1.36
-0.88
-0.45
-0.15
-0.02
-0.04
-0.17
-0.30
-0.41
-0.53
-0.76
-1.19
-1.86
-2.72
-3.60
-4.35
-4.83
-5.01
-4.96
-4.84
-4.84
-5.16
-5.89
-7.00
-8.33
-9.51
-10.10
-9.72
-8.11
-5.33
-1.71
2.27
6.03
9.13
11.31
12.49
12.79
12.35
11.30
9.74
7.84
5.78
3.83
2.28
1.28
0.87
0.86
0.99
1.04
0.89
0.59
0.28
0.10
0.08
0.16
0.20
0.11
-0.16
-0.53
-0.91
-1.19
-1.37
-1.50
-1.65
-1.94
-2.36
-2.91
-3.59
-4.40
-5.35
-6.35
-7.20
-7.56
-7.13
-5.72
-3.38
-0.39
2.87
5.99
8.63
10.54
11.62
11.78
11.10
9.70
7.83
5.79
3.86
2.30
1.22
0.69
0.61
0.81
1.08
1.28
1.35
1.28
1.14
0.98
0.82
0.64
0.44
0.18
-0.16
-0.61
-1.23
-2.01
-2.94
-3.95
-5.00
-6.09
-7.24
-8.37
-9.32
-9.77
-9.42
-8.11
-5.89
-3.07
-0.09
2.63
4.76
6.16
6.80
6.73
6.00
4.75
3.14
1.41
-0.20
-1.51
-2.40
-2.85
-2.91
-2.67
-2.27
-1.87
-1.60
-1.54
-1.64
-1.80
-1.93
-1.98
-2.09
-2.39
-3.05
-4.02
-5.17
-6.34
-7.43
-8.54
-9.76
-11.03
-12.12
-12.54
-11.87
-9.94
-6.90
-3.26
0.39
3.53
5.95
7.61
8.61
9.06
8.99
8.40
7.34
5.91
4.31
2.76
1.43
0.43
-0.24
-0.60
-0.70
-0.59
-0.35
-0.04
0.20
0.28
0.12
-0.32
-0.97
-1.76
-2.61
-3.47
-4.28
-5.05
-5.80
-6.61
-7.55
-8.65
-9.81
-10.77
-11.11
-10.46
-8.58
-5.61
-1.97
1.67
4.69
6.71
7.65
7.68
7.05
6.00
4.66
3.14
1.60
0.26
-0.67
-1.04
-0.87
-0.34
0.31
0.89
1.30
1.57
1.77
1.94
2.04
1.96
1.61
0.94
-0.02
-1.14
-2.24
-3.15
-3.78
-4.12
-4.35
-4.70
-5.43
-6.70
-8.43
-10.25
-11.65
-12.05
-11.09
-8.79
-5.51
-1.85
1.60
4.44
6.54
7.99
8.94
9.47
9.52
9.00
7.87
6.30
4.59
3.09
2.08
1.65
1.68
1.95
2.22
2.38
2.42
2.43
2.46
2.56
2.67
2.71
2.58
2.21
1.60
0.82
-0.05
-0.93
-1.71
-2.42
-3.10
-3.83
-4.70
-5.77
-7.02
-8.37
-9.63
-10.54
-10.77
-10.00
-8.08
-5.06
-1.31
2.65
6.23
8.99
10.72
11.39
11.16
10.23
8.80
7.11
5.45
4.10
3.32
3.15
3.47
3.97
4.34
4.40
4.17
3.82
3.59
3.59
3.77
3.92
3.84
3.36
2.48
1.30
-0.04
-1.38
-2.62
-3.71
-4.62
-5.40
-6.17
-7.03
-8.04
-9.12
-10.04
-10.55
-10.33
-9.22
-7.28
-4.71
-1.86
0.91
3.29
5.10
6.28
6.92
7.10
6.95
6.57
6.02
5.39
4.81
4.39
4.22
4.35
4.72
5.31
6.04
6.87
7.73
8.52
9.07
9.24
8.97
8.31
7.44
6.53
5.73
5.08
4.50
3.88
3.10
2.11
0.93
-0.30
-1.39
-2.10
-2.17
-1.49
-0.05
1.99
4.33
6.64
8.62
10.09
10.98
11.33
11.24
10.79
10.05
9.05
7.83
6.49
5.14
3.98
3.16
2.78
2.85
3.19
3.60
3.84
3.74
3.24
2.44
1.47
0.53
-0.25
-0.78
-1.09
-1.27
-1.48
-1.87
-2.57
-3.65
-5.01
-6.45
-7.67
-8.37
-8.33
-7.46
-5.86
-3.75
-1.48
0.64
2.34
3.49
4.13
4.30
4.16
3.80
3.32
2.78
2.26
1.77
1.34
0.96
0.56
0.12
-0.34
-0.75
-0.98
-0.98
-0.77
-0.46
-0.19
-0.07
-0.14
-0.39
-0.72
-1.07
-1.43
-1.81
-2.25
-2.80
-3.48
-4.27
-5.17
-6.11
-6.98
-7.61
-7.81
-7.37
-6.17
-4.28
-1.91
0.56
2.75
4.41
5.48
6.09
6.40
6.53
6.50
6.21
5.60
4.74
3.81
3.06
2.64
2.55
2.60
2.55
2.23
1.65
0.93
0.30
-0.05
-0.04
0.24
0.58
0.77
0.66
0.22
-0.46
-1.22
-1.91
-2.50
-3.07
-3.69
-4.39
-5.15
-5.89
-6.58
-7.19
-7.75
-8.19
-8.35
-7.98
-6.89
-5.04
-2.65
-0.10
2.18
3.88
4.87
5.23
5.11
4.67
4.04
3.31
2.56
1.89
1.39
1.11
1.04
1.10
1.21
1.32
1.41
1.47
1.53
1.55
1.52
1.38
1.15
0.87
0.62
0.44
0.30
0.12
-0.17
-0.60
-1.15
-1.75
-2.34
-2.96
-3.61
-4.33
-5.08
-5.77
-6.35
-6.83
-7.33
-7.95
-8.69
-9.35
-9.56
-9.00
-7.52
-5.26
-2.60
-0.03
2.08
3.54
4.38
4.65
4.45
3.82
2.82
1.62
0.48
-0.34
-0.63
-0.39
0.20
0.92
1.62
2.25
2.90
3.65
4.49
5.31
5.93
6.16
5.99
5.51
4.91
4.42
4.22
4.39
4.90
5.62
6.37
6.97
7.30
7.29
7.03
6.65
6.37
6.39
6.81
7.57
8.37
8.76
8.31
6.74
4.10
0.75
-2.79
-5.97
-8.41
-9.96
-10.71
-10.87
-10.73
-10.55
-10.46
-10.57
-10.87
-11.29
-11.74
-12.07
-12.15
-11.83
-10.99
-9.65
-7.95
-6.22
-4.81
-3.95
-3.63
-3.65
-3.69
-3.56
-3.23
-2.80
-2.44
-2.23
-2.12
-2.03
-1.90
-1.76
-1.67
-1.70
-1.83
-1.98
-2.08
-2.09
-2.03
-1.99
-1.97
-1.92
-1.68
-1.00
0.27
2.21
4.68
7.36
9.83
11.73
12.83
13.14
12.82
12.14
11.34
10.58
9.92
9.36
8.86
8.37
7.87
7.36
6.86
6.43
6.11
5.87
5.64
5.24
4.54
3.47
2.10
0.59
-0.85
-2.08
-3.07
-3.89
-4.69
-5.59
-6.67
-7.98
-9.43
-10.87
-12.07
-12.73
-12.64
-11.69
-10.01
-7.91
-5.80
-4.05
-2.90
-2.41
-2.43
-2.72
-3.03
-3.15
-3.00
-2.57
-1.95
-1.27
-0.62
-0.10
0.24
0.36
0.26
-0.03
-0.39
-0.71
-0.86
-0.79
-0.51
-0.17
0.09
0.12
-0.17
-0.76
-1.61
-2.64
-3.76
-4.91
-6.00
-6.90
-7.47
-7.51
-6.87
-5.54
-3.69
-1.63
0.27
1.77
2.78
3.40
3.77
3.96
3.95
3.68
3.14
2.48
1.95
1.74
1.87
2.16
2.36
2.23
1.75
1.04
0.30
-0.32
-0.79
-1.15
-1.44
-1.71
-1.94
-2.15
-2.42
-2.82
-3.43
-4.28
-5.35
-6.61
-7.98
-9.35
-10.51
-11.17
-11.01
-9.87
-7.76
-4.97
-1.93
0.93
3.32
5.11
6.34
7.06
7.30
7.05
6.36
5.32
4.20
3.28
2.76
2.69
2.93
3.24
3.39
3.27
2.95
2.57
2.32
2.33
2.66
3.23
3.87
4.37
4.49
4.09
3.18
1.89
0.45
-0.91
-2.09
-3.07
-4.01
-5.03
-6.21
-7.52
-8.77
-9.70
-10.02
-9.53
-8.16
-6.05
-3.51
-0.92
1.33
3.04
4.14
4.77
5.09
5.25
5.33
5.35
5.34
5.32
5.35
5.44
5.59
5.75
5.84
5.81
5.69
5.50
5.32
5.23
5.23
5.29
5.33
5.21
4.82
4.17
3.33
2.50
1.90
1.58
1.47
1.35
1.01
0.39
-0.39
-1.10
-1.50
-1.55
-1.37
-1.18
-1.19
-1.50
-2.08
-2.86
-3.73
-4.57
-5.25
-5.55
-5.23
-4.16
-2.38
-0.13
2.20
4.31
6.00
7.23
8.03
8.46
8.52
8.27
7.81
7.32
7.01
6.93
7.01
7.10
7.09
6.98
6.91
7.03
7.40
7.93
8.43
8.72
8.73
8.51
8.21
7.99
7.84
7.72
7.48
7.03
6.40
5.65
4.92
4.30
3.82
3.42
3.02
2.53
1.87
1.07
0.12
-0.92
-2.00
-3.03
-3.88
-4.40
-4.47
-3.97
-2.91
-1.38
0.46
2.41
4.24
5.83
7.07
7.86
8.15
7.87
7.05
5.84
4.48
3.30
2.50
2.14
2.08
2.09
2.00
1.79
1.51
1.29
1.16
1.08
0.93
0.63
0.17
-0.36
-0.85
-1.20
-1.40
-1.47
-1.51
-1.58
-1.69
-1.81
-1.89
-1.88
-1.80
-1.75
-1.87
-2.31
-3.14
-4.31
-5.70
-7.11
-8.30
-9.08
-9.29
-8.85
-7.79
-6.22
-4.37
-2.49
-0.78
0.62
1.67
2.39
2.81
2.93
2.78
2.34
1.66
0.83
-0.01
-0.67
-1.02
-1.04
-0.78
-0.41
-0.12
-0.02
-0.11
-0.29
-0.42
-0.43
-0.33
-0.22
-0.17
-0.21
-0.31
-0.40
-0.45
-0.53
-0.70
-1.05
-1.56
-2.18
-2.79
-3.31
-3.66
-3.82
-3.84
-3.81
-3.87
-4.10
-4.54
-5.17
-5.90
-6.60
-7.17
-7.50
-7.49
-7.02
-6.09
-4.72
-3.07
-1.35
0.18
1.38
2.19
2.69
2.95
3.05
2.98
2.70
2.19
1.50
0.73
0.03
-0.48
-0.75
-0.80
-0.69
-0.50
-0.33
-0.26
-0.35
-0.66
-1.16
-1.77
-2.36
-2.74
-2.82
-2.59
-2.16
-1.73
-1.47
-1.48
-1.76
-2.20
-2.69
-3.13
-3.50
-3.83
-4.20
-4.63
-5.13
-5.64
-6.08
-6.40
-6.57
-6.57
-6.44
-6.27
-6.17
-6.28
-6.65
-7.26
-7.92
-8.34
-8.25
-7.52
-6.16
-4.45
-2.73
-1.30
-0.29
0.35
0.78
1.20
1.65
2.09
2.35
2.33
2.00
1.51
1.05
0.79
0.78
0.88
0.96
0.88
0.67
0.48
0.49
0.75
1.13
1.39
1.33
0.97
0.47
0.11
-0.02
-0.00
-0.12
-0.60
-1.48
-2.51
-3.36
-3.82
-3.87
-3.77
-3.79
-4.08
-4.59
-5.08
-5.35
-5.29
-4.99
-4.64
-4.44
-4.53
-4.96
-5.69
-6.64
-7.66
-8.55
-9.07
-8.99
-8.17
-6.59
-4.45
-2.06
0.19
1.95
3.04
3.47
3.41
3.10
2.70
2.28
1.84
1.36
0.90
0.61
0.62
0.99
1.66
2.40
3.03
3.46
3.66
3.73
3.76
3.76
3.72
3.57
3.33
3.06
2.87
2.85
2.95
3.10
3.13
2.95
2.53
1.96
1.40
0.97
0.75
0.71
0.76
0.78
0.69
0.49
0.23
-0.02
-0.19
-0.29
-0.38
-0.53
-0.75
-0.99
-1.07
-0.79
0.01
1.32
2.96
4.63
6.03
7.02
7.58
7.85
7.92
7.81
7.40
6.60
5.40
3.96
2.59
1.55
0.98
0.87
1.03
1.26
1.42
1.49
1.53
1.60
1.72
1.85
1.89
1.79
1.51
1.08
0.55
-0.01
-0.54
-1.04
-1.45
-1.79
-2.05
-2.29
-2.56
-2.93
-3.43
-4.06
-4.75
-5.44
-6.06
-6.62
-7.20
-7.86
-8.61
-9.36
-9.93
-10.04
-9.51
-8.30
-6.54
-4.49
-2.44
-0.62
0.84
1.86
2.47
2.66
2.53
2.17
1.70
1.21
0.75
0.32
-0.05
-0.36
-0.55
-0.59
-0.49
-0.33
-0.19
-0.13
-0.16
-0.23
-0.33
-0.44
-0.57
-0.75
-1.01
-1.35
-1.79
-2.34
-3.03
-3.82
-4.63
-5.43
-6.18
-6.87
-7.51
-8.10
-8.58
-8.96
-9.27
-9.62
-10.15
-10.87
-11.62
-12.15
-12.14
-11.39
-9.92
-7.90
-5.59
-3.23
-0.99
1.00
2.63
3.82
4.53
4.76
4.63
4.24
3.75
3.28
2.92
2.69
2.56
2.49
2.40
2.27
2.10
1.95
1.92
2.05
2.36
2.75
3.12
3.36
3.43
3.25
2.83
2.14
1.15
-0.11
-1.55
-3.01
-4.29
-5.21
-5.73
-5.93
-6.05
-6.39
-7.15
-8.42
-10.06
-11.74
-13.04
-13.58
-13.11
-11.65
-9.39
-6.67
-3.89
-1.34
0.82
2.58
4.01
5.18
6.12
6.81
7.21
7.30
7.12
6.78
6.41
6.14
6.06
6.17
6.43
6.75
7.02
7.16
7.13
6.93
6.58
6.11
5.57
5.02
4.47
3.94
3.46
2.97
2.39
1.67
0.72
-0.51
-2.01
-3.72
-5.48
-7.13
-8.49
-9.50
-10.24
-10.90
-11.71
-12.78
-14.00
-15.06
-15.53
-15.02
-13.31
-10.49
-6.86
-2.85
1.10
4.66
7.60
9.81
11.27
11.98
12.05
11.63
10.89
10.04
9.25
8.64
8.26
8.14
8.23
8.46
8.73
8.87
8.76
8.37
7.75
7.07
6.51
6.13
5.87
5.56
5.02
4.19
3.10
1.92
0.81
-0.18
-1.07
-1.95
-2.93
-4.08
-5.41
-6.90
-8.48
-9.99
-11.24
-11.98
-11.95
-11.01
-9.11
-6.34
-2.93
0.81
4.58
8.05
11.00
13.27
14.77
15.50
15.48
14.78
13.53
11.94
10.27
8.77
7.63
6.87
6.41
6.08
5.81
5.57
5.42
5.42
5.55
5.68
5.59
5.07
4.07
2.66
1.08
-0.42
-1.66
-2.64
-3.51
-4.47
-5.74
-7.43
-9.49
-11.80
-14.08
-16.00
-17.21
-17.39
-16.35
-14.08
-10.74
-6.66
-2.29
1.96
5.71
8.67
10.69
11.69
11.71
10.87
9.40
7.65
6.01
4.78
4.11
3.93
3.99
4.02
3.89
3.61
3.36
3.33
3.56
3.95
4.23
4.16
3.56
2.44
0.90
-0.89
-2.77
-4.63
-6.36
-7.90
-9.22
-10.38
-11.52
-12.82
-14.39
-16.18
-17.88
-18.96
-18.82
-17.02
-13.48
-8.53
-2.88
2.70
7.56
11.35
14.05
15.78
16.66
16.76
16.07
14.66
12.78
10.80
9.18
8.17
7.80
7.83
7.90
7.72
7.18
6.38
5.57
4.96
4.66
4.55
4.38
3.84
2.74
1.07
-1.00
-3.16
-5.15
-6.85
-8.30
-9.69
-11.22
-13.06
-15.25
-17.70
-20.22
-22.47
-24.01
-24.37
-23.21
-20.42
-16.18
-11.01
-5.51
-0.24
4.45
8.44
11.73
14.31
16.05
16.80
16.51
15.33
13.68
12.07
10.92
10.35
10.20
10.21
10.10
9.81
9.42
9.04
8.76
8.53
8.26
7.85
7.28
6.49
5.47
4.21
2.70
1.03
-0.61
-2.06
-3.25
-4.31
-5.47
-7.03
-9.17
-11.87
-14.83
-17.62
-19.70
-20.56
-19.86
-17.49
-13.66
-8.77
-3.37
1.98
6.84
10.93
14.13
16.42
17.84
18.41
18.22
17.39
16.14
14.72
13.43
12.45
11.82
11.51
11.37
11.22
10.95
10.50
9.92
9.31
8.77
8.41
8.26
8.29
8.37
8.33
7.93
7.02
5.53
3.54
1.33
-0.76
-2.43
-3.54
-4.20
-4.80
-5.73
-7.29
-9.45
-11.85
-13.91
-15.02
-14.70
-12.81
-9.49
-5.11
-0.21
4.66
9.00
12.42
14.74
15.93
16.11
15.43
14.14
12.42
10.52
8.71
7.24
6.29
5.91
5.95
6.17
6.33
6.29
6.13
5.98
5.96
6.07
6.11
5.83
5.03
3.69
2.01
0.22
-1.44
-2.86
-4.02
-5.01
-5.94
-6.97
-8.25
-9.89
-11.88
-14.00
-15.81
-16.73
-16.27
-14.22
-10.76
-6.37
-1.69
2.67
6.33
9.11
10.99
11.98
12.13
11.50
10.25
8.67
7.09
5.89
5.25
5.14
5.36
5.61
5.65
5.39
4.94
4.48
4.20
4.12
4.09
3.84
3.08
1.67
-0.35
-2.70
-5.00
-6.88
-8.16
-8.85
-9.20
-9.61
-10.44
-11.97
-14.17
-16.69
-18.86
-19.95
-19.34
-16.77
-12.50
-7.16
-1.61
3.40
7.42
10.30
12.10
12.99
13.09
12.47
11.26
9.63
7.86
6.23
4.95
4.13
3.75
3.67
3.73
3.79
3.76
3.61
3.38
3.07
2.69
2.17
1.41
0.30
-1.16
-2.88
-4.65
-6.27
-7.62
-8.70
-9.70
-10.84
-12.31
-14.18
-16.39
-18.72
-20.85
-22.43
-23.04
-22.40
-20.33
-16.94
-12.58
-7.78
-3.13
0.93
4.24
6.86
8.99
10.77
12.11
12.80
12.63
11.58
9.99
8.34
7.12
6.59
6.66
7.01
7.31
7.41
7.32
7.19
7.11
7.06
6.92
6.51
5.78
4.79
3.71
2.69
1.75
0.77
-0.40
-1.83
-3.47
-5.11
-6.54
-7.66
-8.56
-9.50
-10.83
-12.73
-15.17
-17.81
-20.10
-21.44
-21.35
-19.58
-16.25
-11.72
-6.51
-1.18
3.78
8.06
11.44
13.79
15.10
15.42
14.97
14.01
12.84
11.71
10.79
10.11
9.69
9.49
9.44
9.48
9.51
9.42
9.22
8.94
8.66
8.43
8.25
8.05
7.79
7.43
7.02
6.59
6.15
5.63
4.96
4.14
3.25
2.44
1.80
1.30
0.76
-0.02
-1.14
-2.53
-4.01
-5.34
-6.39
-7.20
-7.90
-8.68
-9.70
-11.02
-12.60
-14.26
-15.71
-16.52
-16.30
-14.77
-11.94
-8.13
-3.86
0.24
3.73
6.36
8.14
9.24
9.85
10.08
10.00
9.64
9.07
8.40
7.78
7.36
7.23
7.39
7.76
8.27
8.81
9.32
9.76
10.08
10.22
10.13
9.76
9.09
8.16
7.04
5.84
4.70
3.70
2.87
2.10
1.26
0.22
-1.08
-2.54
-3.99
-5.27
-6.31
-7.15
-7.93
-8.78
-9.78
-10.98
-12.31
-13.71
-14.99
-15.90
-16.12
-15.38
-13.52
-10.63
-7.03
-3.16
0.54
3.72
6.17
7.84
8.73
8.92
8.54
7.76
6.78
5.77
4.83
4.05
3.46
3.09
3.00
3.17
3.55
4.00
4.34
4.45
4.24
3.77
3.14
2.44
1.74
1.06
0.37
-0.35
-1.08
-1.85
-2.68
-3.62
-4.68
-5.84
-6.99
-8.04
-8.92
-9.62
-10.30
-11.09
-12.14
-13.49
-15.05
-16.58
-17.73
-18.16
-17.53
-15.73
-12.85
-9.21
-5.25
-1.42
1.95
4.67
6.71
8.08
8.80
8.95
8.62
7.96
7.20
6.48
5.90
5.49
5.21
5.03
4.93
4.93
5.00
5.07
5.04
4.81
4.34
3.70
3.02
2.37
1.78
1.23
0.62
-0.09
-0.92
-1.80
-2.71
-3.60
-4.52
-5.47
-6.44
-7.39
-8.23
-8.94
-9.59
-10.30
-11.22
-12.46
-13.98
-15.56
-16.90
-17.57
-17.27
-15.78
-13.15
-9.63
-5.69
-1.82
1.54
4.14
5.95
7.09
7.71
7.96
7.93
7.64
7.17
6.59
6.02
5.53
5.17
4.92
4.75
4.63
4.60
4.68
4.89
5.23
5.60
5.86
5.81
5.33
4.38
3.11
1.74
0.52
-0.44
-1.17
-1.88
-2.75
-3.88
-5.20
-6.52
-7.69
-8.64
-9.43
-10.20
-11.06
-12.08
-13.24
-14.49
-15.74
-16.87
-17.61
-17.68
-16.78
-14.76
-11.72
-7.98
-4.02
-0.30
2.79
5.11
6.60
7.35
7.52
7.29
6.85
6.37
5.94
5.57
5.24
4.87
4.45
4.07
3.83
3.82
4.03
4.40
4.83
5.24
5.57
5.84
6.05
6.20
6.29
6.36
6.45
6.61
6.82
6.97
6.95
6.67
6.10
5.37
4.62
3.94
3.34
2.69
1.78
0.46
-1.35
-3.47
-5.61
-7.33
-8.23
-8.04
-6.75
-4.54
-1.79
1.15
3.97
6.49
8.56
10.04
10.71
10.41
9.12
7.07
4.72
2.65
1.27
0.71
0.81
1.22
1.64
1.91
2.03
2.09
2.14
2.15
2.06
1.80
1.35
0.75
0.02
-0.76
-1.55
-2.25
-2.77
-3.02
-3.00
-2.81
-2.60
-2.63
-3.08
-4.05
-5.54
-7.37
-9.21
-10.64
-11.29
-10.88
-9.39
-6.98
-4.05
-1.08
1.49
3.34
4.35
4.66
4.46
4.01
3.51
3.01
2.50
1.94
1.31
0.65
0.07
-0.31
-0.45
-0.36
-0.18
-0.04
-0.02
-0.14
-0.32
-0.49
-0.59
-0.69
-0.91
-1.39
-2.19
-3.23
-4.35
-5.35
-6.15
-6.75
-7.28
-7.92
-8.80
-9.92
-11.15
-12.20
-12.71
-12.38
-11.06
-8.83
-5.98
-2.89
0.09
2.68
4.76
6.32
7.35
7.87
7.91
7.57
6.99
6.37
5.85
5.46
5.13
4.74
4.25
3.67
3.09
2.62
2.29
2.10
1.93
1.68
1.28
0.67
-0.12
-1.04
-1.99
-2.90
-3.70
-4.38
-4.95
-5.46
-6.00
-6.61
-7.36
-8.34
-9.63
-11.22
-13.00
-14.67
-15.81
-16.00
-14.95
-12.61
-9.21
-5.14
-0.85
3.17
6.59
9.14
10.70
11.28
11.01
10.12
8.88
7.55
6.36
5.43
4.78
4.42
4.30
4.33
4.42
4.51
4.48
4.31
4.00
3.59
3.15
2.76
2.44
2.14
1.74
1.09
0.13
-1.10
-2.49
-3.86
-5.07
-6.10
-6.98
-7.83
-8.79
-9.94
-11.34
-12.94
-14.61
-16.09
-17.02
-17.02
-15.90
-13.67
-10.61
-7.20
-3.87
-0.90
1.61
3.76
5.58
7.07
8.13
8.68
8.69
8.31
7.74
7.19
6.78
6.51
6.28
6.06
5.82
5.61
5.53
5.57
5.71
5.87
5.92
5.82
5.54
5.12
4.62
4.09
3.57
3.06
2.57
2.10
1.66
1.28
0.95
0.65
0.34
-0.06
-0.58
-1.27
-2.11
-3.10
-4.16
-5.18
-5.97
-6.28
-5.90
-4.70
-2.74
-0.19
2.66
5.48
8.03
10.14
11.68
12.58
12.80
12.39
11.50
10.36
9.25
8.38
7.81
7.53
7.44
7.44
7.49
7.57
7.62
7.54
7.25
6.67
5.85
4.91
3.98
3.14
2.37
1.58
0.71
-0.25
-1.24
-2.12
-2.84
-3.40
-3.85
-4.31
-4.90
-5.69
-6.76
-8.07
-9.50
-10.81
-11.70
-11.86
-11.11
-9.48
-7.15
-4.41
-1.59
1.05
3.29
4.98
6.00
6.30
5.94
5.11
4.10
3.20
2.59
2.35
2.39
2.54
2.66
2.65
2.49
2.24
2.01
1.86
1.84
1.90
1.91
1.76
1.35
0.65
-0.19
-1.02
-1.70
-2.21
-2.70
-3.39
-4.47
-5.97
-7.77
-9.57
-11.05
-11.98
-12.16
-11.56
-10.19
-8.10
-5.48
-2.55
0.38
2.97
5.02
6.42
7.18
7.36
7.07
6.38
5.39
4.26
3.19
2.36
1.89
1.72
1.73
1.78
1.77
1.71
1.68
1.74
1.87
1.97
1.87
1.43
0.58
-0.66
-2.14
-3.65
-4.93
-5.83
-6.37
-6.71
-7.18
-8.04
-9.35
-10.91
-12.29
-13.01
-12.72
-11.34
-9.01
-6.07
-2.91
0.17
2.93
5.28
7.20
8.69
9.74
10.31
10.33
9.75
8.67
7.25
5.80
4.60
3.80
3.43
3.35
3.37
3.38
3.31
3.17
2.99
2.77
2.49
2.06
1.43
0.56
-0.51
-1.70
-2.90
-3.96
-4.81
-5.45
-5.92
-6.40
-7.08
-8.10
-9.57
-11.37
-13.26
-14.87
-15.79
-15.69
-14.46
-12.18
-9.17
-5.88
-2.71
0.09
2.40
4.27
5.80
7.03
7.95
8.52
8.72
8.65
8.44
8.28
8.29
8.45
8.68
8.83
8.82
8.66
8.41
8.14
7.90
7.65
7.38
7.06
6.71
6.34
5.91
5.34
4.52
3.39
2.01
0.49
-0.99
-2.35
-3.59
-4.76
-5.92
-7.06
-8.12
-9.09
-9.98
-10.89
-11.93
-13.14
-14.43
-15.65
-16.57
-16.99
-16.78
-15.83
-14.10
-11.64
-8.61
-5.30
-2.06
0.78
2.97
4.48
5.45
6.07
6.57
7.08
7.60
8.05
8.33
8.33
8.11
7.74
7.36
7.09
6.96
6.93
6.87
6.67
6.30
5.79
5.26
4.82
4.50
4.26
4.00
3.63
3.11
2.49
1.82
1.15
0.47
-0.23
-0.99
-1.76
-2.46
-2.99
-3.31
-3.51
-3.74
-4.18
-4.87
-5.76
-6.66
-7.41
-7.96
-8.36
-8.77
-9.35
-10.10
-10.88
-11.43
-11.41
-10.60
-8.93
-6.51
-3.63
-0.68
2.05
4.34
6.16
7.60
8.70
9.47
9.76
9.47
8.65
7.55
6.57
6.06
6.13
6.58
7.08
7.29
7.09
6.64
6.20
6.03
6.21
6.65
7.10
7.37
7.33
6.95
6.28
5.38
4.34
3.24
2.14
1.11
0.19
-0.62
-1.31
-1.92
-2.46
-2.93
-3.33
-3.67
-3.96
-4.21
-4.44
-4.68
-4.94
-5.31
-5.85
-6.57
-7.31
-7.80
-7.70
-6.76
-4.96
-2.55
0.01
2.29
4.00
5.10
5.68
5.92
5.89
5.64
5.13
4.44
3.68
2.99
2.47
2.15
1.99
1.92
1.89
1.86
1.83
1.78
1.71
1.64
1.61
1.67
1.78
1.88
1.84
1.56
1.00
0.22
-0.70
-1.66
-2.55
-3.30
-3.84
-4.12
-4.18
-4.15
-4.25
-4.71
-5.60
-6.73
-7.74
-8.14
-7.63
-6.16
-3.98
-1.57
0.59
2.21
3.23
3.82
4.22
4.58
4.89
5.01
4.78
4.15
3.25
2.31
1.60
1.24
1.20
1.30
1.31
1.07
0.55
-0.17
-0.94
-1.60
-2.05
-2.30
-2.44
-2.62
-2.96
-3.50
-4.17
-4.85
-5.41
-5.77
-5.98
-6.14
-6.38
-6.79
-7.37
-8.05
-8.68
-9.08
-9.07
-8.51
-7.30
-5.49
-3.25
-0.81
1.54
3.56
5.12
6.17
6.76
6.95
6.83
6.45
5.88
5.19
4.47
3.83
3.34
3.05
2.92
2.90
2.88
2.79
2.56
2.20
1.72
1.21
0.75
0.39
0.12
-0.10
-0.34
-0.66
-1.08
-1.57
-2.10
-2.65
-3.24
-3.93
-4.77
-5.79
-6.90
-7.97
-8.84
-9.31
-9.27
-8.66
-7.49
-5.86
-3.91
-1.82
0.13
1.72
2.83
3.46
3.75
3.84
3.83
3.69
3.35
2.77
2.04
1.38
0.99
0.98
1.28
1.70
2.08
2.36
2.58
2.85
3.18
3.51
3.70
3.64
3.32
2.84
2.33
1.91
1.63
1.40
1.17
0.85
0.37
-0.33
-1.35
-2.78
-4.66
-6.93
-9.35
-11.60
-13.33
-14.31
-14.41
-13.71
-12.39
-10.66
-8.74
-6.81
-5.02
-3.49
-2.29
-1.45
-0.98
-0.81
-0.87
-1.08
-1.32
-1.50
-1.56
-1.49
-1.30
-1.03
-0.74
-0.50
-0.33
-0.22
-0.15
-0.08
0.04
0.23
0.48
0.69
0.74
0.49
-0.11
-1.03
-2.15
-3.27
-4.27
-5.04
-5.60
-6.06
-6.54
-7.19
-8.03
-9.02
-9.95
-10.53
-10.46
-9.59
-7.92
-5.67
-3.18
-0.78
1.33
3.10
4.56
5.77
6.70
7.26
7.40
7.12
6.59
6.03
5.66
5.59
5.78
6.08
6.31
6.36
6.24
6.07
6.04
6.21
6.58
6.97
7.11
6.79
5.95
4.69
3.28
1.98
1.02
0.44
0.07
-0.33
-1.01
-2.14
-3.72
-5.58
-7.49
-9.16
-10.28
-10.64
-10.11
-8.71
-6.60
-4.11
-1.55
0.76
2.68
4.13
5.16
5.80
6.03
5.88
5.40
4.73
4.00
3.32
2.75
2.31
2.05
2.06
2.50
3.44
4.76
6.20
7.38
7.95
7.81
7.08
6.09
5.20
4.62
4.33
4.10
3.62
2.63
1.04
-1.09
-3.53
-5.98
-8.11
-9.63
-10.27
-9.94
-8.69
-6.71
-4.36
-1.98
0.20
2.04
3.53
4.74
5.65
6.24
6.50
6.40
5.97
5.27
4.34
3.27
2.09
0.90
-0.21
-1.17
-1.90
-2.37
-2.60
-2.70
-2.78
-3.04
-3.55
-4.29
-5.20
-6.12
-6.93
-7.60
-8.15
-8.63
-9.15
-9.79
-10.63
-11.67
-12.84
-13.85
-14.31
-13.82
-12.12
-9.28
-5.68
-1.86
1.66
4.53
6.65
8.11
9.01
9.41
9.35
8.88
8.10
7.26
6.61
6.32
6.41
6.73
7.03
7.14
7.03
6.82
6.68
6.72
6.86
6.89
6.56
5.75
4.55
3.19
1.92
0.93
0.17
-0.53
-1.41
-2.67
-4.38
-6.45
-8.71
-10.86
-12.53
-13.41
-13.23
-11.93
-9.68
-6.80
-3.69
-0.69
2.00
4.27
6.03
7.24
7.87
7.92
7.49
6.77
5.95
5.21
4.58
4.10
3.72
3.44
3.28
3.28
3.43
3.67
3.89
3.96
3.79
3.37
2.78
2.13
1.53
0.99
0.46
-0.10
-0.75
-1.46
-2.23
-3.10
-4.17
-5.63
-7.53
-9.74
-11.91
-13.58
-14.30
-13.83
-12.17
-9.51
-6.11
-2.23
1.88
5.93
9.61
12.60
14.73
15.99
16.58
16.73
16.63
16.34
15.79
14.98
13.97
12.92
12.01
11.32
10.78
10.30
9.76
9.19
8.72
8.48
8.56
8.89
9.30
9.54
9.43
8.85
7.81
6.31
4.36
1.94
-0.96
-4.35
-8.17
-12.29
-16.54
-20.72
-24.63
-28.11
-30.95
-32.95
-33.91
-33.71
-32.39
-30.16
-27.29
-24.12
-20.86
-17.64
-14.53
-11.52
-8.65
-6.00
-3.64
-1.59
0.25
2.14
4.37
7.24
10.94
15.50
20.68
26.17
31.59
36.66
41.21
45.14
48.39
50.90
52.57
53.27
53.00
51.90
50.31
48.59
47.08
45.98
45.37
45.24
45.25
45.02
44.20
42.54
39.83
35.93
30.75
24.24
16.45
7.24
-3.28
-14.46
-25.42
-35.36
-43.63
-49.77
-53.51
-54.51
-52.99
-49.10
-42.63
-34.01
-24.71
-16.69
-11.80
-10.93
-11.01
-8.56
-0.32
15.49
37.26
61.09
83.39
101.91
115.63
123.92
125.40
118.63
104.20
84.20
61.83
40.90
23.96
10.84
4.21
2.64
-2.78
-16.53
-36.74
-60.53
-84.24
-104.59
-119.48
-128.04
-131.28
-130.51
-125.98
-118.23
-108.57
-98.24
-88.43
-79.99
-73.20
-68.54
-65.90
-64.11
-62.19
-59.95
-57.44
-54.87
-52.38
-49.96
-47.78
-45.82
-43.52
-40.58
-37.21
-33.77
-30.60
-27.86
-25.55
-23.65
-22.01
-20.28
-18.34
-16.42
-14.88
-14.00
-13.87
-14.21
-14.49
-13.98
-11.99
-8.19
-2.82
3.44
9.73
15.29
19.71
22.92
25.00
26.05
26.07
25.02
22.97
20.22
17.19
14.37
12.09
10.46
9.41
8.72
8.19
7.66
7.08
6.41
5.67
4.82
3.79
2.55
1.05
-0.75
-2.81
-5.16
-7.80
-10.68
-13.68
-16.47
-18.54
-19.31
-18.27
-15.18
-10.18
-3.80
3.19
9.93
15.64
19.79
22.12
22.69
21.74
19.59
16.62
13.19
9.66
6.49
4.07
2.70
2.43
3.01
4.01
4.97
5.59
5.83
5.83
5.71
5.49
5.03
4.11
2.56
0.38
-2.32
-5.37
-8.60
-11.84
-14.85
-17.27
-18.67
-18.61
-16.80
-13.26
-8.27
-2.40
3.70
9.46
14.45
18.50
21.61
23.86
25.33
26.03
25.89
24.88
23.11
20.89
18.73
17.07
16.22
16.11
16.43
16.71
16.62
16.04
15.12
14.13
13.27
12.52
11.73
10.67
9.22
7.42
5.38
3.23
0.98
-1.51
-4.46
-7.92
-11.68
-15.19
-17.67
-18.40
-16.95
-13.40
-8.26
-2.32
3.64
9.06
13.68
17.45
20.37
22.46
23.68
23.99
23.46
22.28
20.76
19.23
17.93
16.99
16.43
16.09
15.83
15.53
15.14
14.70
14.31
13.98
13.71
13.38
12.84
12.00
10.78
9.17
7.26
5.17
3.02
0.97
-0.87
-2.47
-3.85
-5.19
-6.73
-8.70
-11.22
-14.15
-17.03
-19.18
-19.85
-18.52
-15.13
-10.07
-4.07
2.06
7.70
12.50
16.38
19.33
21.37
22.56
22.94
22.73
22.17
21.48
20.81
20.17
19.52
18.81
18.02
17.19
16.37
15.60
14.94
14.41
14.03
13.76
13.48
13.03
12.24
10.98
9.27
7.26
5.17
3.29
1.73
0.49
-0.55
-1.66
-3.08
-4.93
-7.19
-9.60
-11.75
-13.22
-13.62
-12.74
-10.59
-7.36
-3.42
0.82
4.94
8.64
11.66
13.91
15.32
15.91
15.80
15.12
14.04
12.78
11.50
10.32
9.36
8.64
8.14
7.83
7.60
7.36
7.07
6.69
6.25
5.77
5.19
4.43
3.40
2.07
0.58
-0.83
-1.92
-2.57
-2.87
-3.08
-3.49
-4.35
-5.74
-7.61
-9.83
-12.17
-14.35
-16.04
-16.84
-16.42
-14.65
-11.61
-7.67
-3.37
0.73
4.18
6.68
8.18
8.78
8.67
8.12
7.32
6.42
5.51
4.70
4.04
3.64
3.49
3.55
3.71
3.82
3.78
3.58
3.30
3.02
2.83
2.69
2.53
2.23
1.70
0.95
0.02
-1.02
-2.08
-3.12
-4.13
-5.05
-5.84
-6.50
-7.08
-7.71
-8.57
-9.78
-11.35
-13.04
-14.47
-15.21
-14.94
-13.51
-11.05
-7.82
-4.17
-0.44
3.05
6.07
8.37
9.82
10.40
10.23
9.54
8.56
7.49
6.41
5.38
4.45
3.72
3.29
3.12
3.14
3.19
3.11
2.88
2.58
2.41
2.51
2.90
3.42
3.83
3.85
3.35
2.44
1.40
0.61
0.32
0.55
1.03
1.38
1.27
0.60
-0.46
-1.61
-2.52
-3.07
-3.30
-3.39
-3.59
-4.11
-5.08
-6.51
-8.32
-10.27
-12.04
-13.24
-13.54
-12.76
-10.89
-8.14
-4.89
-1.56
1.42
3.72
5.20
5.87
5.91
5.53
4.95
4.28
3.58
2.82
2.03
1.30
0.74
0.49
0.60
1.03
1.64
2.28
2.80
3.12
3.21
3.08
2.76
2.29
1.70
1.03
0.34
-0.32
-0.92
-1.44
-1.90
-2.33
-2.76
-3.22
-3.70
-4.16
-4.59
-4.94
-5.21
-5.48
-5.77
-6.19
-6.74
-7.38
-7.99
-8.42
-8.55
-8.38
-8.04
-7.74
-7.68
-7.84
-8.01
-7.77
-6.74
-4.73
-1.88
1.41
4.65
7.43
9.52
10.86
11.50
11.50
10.94
9.93
8.64
7.28
6.05
5.09
4.45
4.07
3.87
3.73
3.56
3.30
2.96
2.65
2.47
2.52
2.80
3.18
3.46
3.48
3.18
2.71
2.28
2.05
2.01
2.06
2.02
1.77
1.31
0.71
0.02
-0.75
-1.59
-2.49
-3.41
-4.31
-5.18
-6.05
-6.97
-7.86
-8.54
-8.74
-8.20
-6.85
-4.84
-2.51
-0.31
1.41
2.44
2.71
2.29
1.36
0.14
-1.12
-2.21
-2.97
-3.30
-3.23
-2.88
-2.37
-1.90
-1.59
-1.50
-1.61
-1.80
-1.91
-1.85
-1.60
-1.26
-1.05
-1.13
-1.54
-2.16
-2.81
-3.31
-3.64
-3.87
-4.17
-4.62
-5.21
-5.82
-6.38
-6.90
-7.54
-8.46
-9.67
-10.93
-11.83
-11.92
-10.94
-8.97
-6.35
-3.58
-1.08
0.93
2.37
3.33
3.88
4.05
3.86
3.34
2.57
1.66
0.73
-0.13
-0.85
-1.39
-1.74
-1.91
-1.96
-1.92
-1.85
-1.79
-1.77
-1.76
-1.73
-1.68
-1.63
-1.66
-1.88
-2.37
-3.14
-4.11
-5.09
-5.88
-6.37
-6.53
-6.52
-6.58
-6.95
-7.79
-9.12
-10.80
-12.58
-14.12
-15.12
-15.33
-14.66
-13.15
-10.93
-8.22
-5.28
-2.39
0.15
2.08
3.18
3.38
2.74
1.51
-0.03
-1.57
-2.88
-3.84
-4.44
-4.70
-4.70
-4.46
-4.01
-3.41
-2.70
-1.96
-1.27
-0.67
-0.16
0.31
0.78
1.26
1.67
1.93
1.95
1.67
1.16
0.55
-0.07
-0.63
-1.23
-1.96
-2.96
-4.23
-5.76
-7.43
-9.08
-10.48
-11.34
-11.41
-10.50
-8.59
-5.85
-2.63
0.66
3.65
6.13
8.07
9.48
10.40
10.84
10.77
10.25
9.45
8.56
7.81
7.35
7.15
7.13
7.15
7.13
7.12
7.13
7.21
7.30
7.29
7.06
6.64
6.07
5.49
4.97
4.52
4.07
3.54
2.87
2.08
1.22
0.32
-0.59
-1.49
-2.37
-3.19
-3.94
-4.71
-5.59
-6.65
-7.82
-8.79
-9.19
-8.64
-7.01
-4.45
-1.32
1.95
5.00
7.66
9.89
11.67
13.01
13.88
14.23
14.03
13.33
12.25
10.98
9.75
8.71
7.96
7.43
7.00
6.55
6.03
5.48
4.97
4.53
4.13
3.71
3.20
2.54
1.73
0.73
-0.47
-1.81
-3.19
-4.43
-5.40
-6.10
-6.69
-7.41
-8.47
-9.91
-11.57
-13.14
-14.27
-14.68
-14.19
-12.76
-10.46
-7.49
-4.11
-0.67
2.48
5.05
6.85
7.81
8.02
7.61
6.80
5.83
4.87
4.03
3.34
2.75
2.22
1.71
1.26
0.96
0.91
1.11
1.48
1.81
1.89
1.53
0.69
-0.54
-1.97
-3.43
-4.82
-6.11
-7.36
-8.71
-10.25
-12.04
-14.04
-16.12
-18.03
-19.40
-19.84
-19.06
-16.89
-13.45
-9.09
-4.35
0.22
4.15
7.17
9.17
10.20
10.40
9.97
9.10
8.01
6.90
5.88
5.00
4.25
3.55
2.91
2.39
2.09
2.08
2.30
2.61
2.80
2.67
2.12
1.16
-0.11
-1.58
-3.13
-4.69
-6.20
-7.69
-9.23
-10.98
-13.13
-15.80
-18.85
-21.84
-24.08
-24.84
-23.62
-20.35
-15.43
-9.63
-3.82
1.31
5.41
8.43
10.51
11.82
12.46
12.47
11.92
10.96
9.84
8.86
8.22
7.95
7.92
7.89
7.64
7.11
6.40
5.70
5.23
5.03
4.99
4.88
4.47
3.60
2.31
0.75
-0.90
-2.46
-3.89
-5.23
-6.60
-8.16
-10.09
-12.51
-15.36
-18.41
-21.16
-23.02
-23.39
-21.94
-18.66
-13.90
-8.23
-2.34
3.21
7.99
11.69
14.22
15.65
16.15
16.03
15.61
15.15
14.76
14.44
14.09
13.64
13.09
12.47
11.89
11.41
11.03
10.72
10.41
10.05
9.63
9.12
8.47
7.63
6.51
5.07
3.33
1.42
-0.45
-2.12
-3.53
-4.77
-6.04
-7.55
-9.46
-11.77
-14.33
-16.91
-19.17
-20.70
-21.03
-19.78
-16.75
-12.08
-6.30
-0.12
5.74
10.76
14.75
17.76
19.89
21.23
21.76
21.41
20.21
18.35
16.15
14.02
12.35
11.33
10.96
11.07
11.38
11.61
11.64
11.49
11.33
11.28
11.37
11.45
11.26
10.51
9.11
7.12
4.83
2.55
0.53
-1.10
-2.43
-3.62
-4.90
-6.46
-8.45
-10.86
-13.53
-16.07
-17.96
-18.65
-17.70
-14.97
-10.69
-5.35
0.39
5.90
10.68
14.44
16.98
18.23
18.24
17.17
15.32
13.08
10.83
8.86
7.25
5.99
5.01
4.29
3.87
3.82
4.13
4.71
5.35
5.81
5.89
5.49
4.60
3.29
1.72
0.07
-1.46
-2.73
-3.74
-4.63
-5.65
-7.08
-9.06
-11.59
-14.47
-17.31
-19.65
-20.99
-20.88
-19.01
-15.41
-10.45
-4.86
0.53
4.99
8.11
9.91
10.65
10.64
10.09
9.07
7.62
5.82
3.91
2.14
0.75
-0.15
-0.58
-0.65
-0.49
-0.25
-0.04
0.01
-0.14
-0.51
-1.05
-1.73
-2.55
-3.56
-4.83
-6.41
-8.34
-10.56
-13.01
-15.65
-18.33
-20.78
-22.61
-23.30
-22.40
-19.68
-15.24
-9.54
-3.29
2.76
7.98
11.96
14.59
15.99
16.37
16.02
15.15
13.98
12.66
11.30
9.97
8.71
7.51
6.37
5.36
4.54
4.00
3.75
3.71
3.67
3.43
2.77
1.59
-0.11
-2.26
-4.68
-7.18
-9.64
-12.00
-14.36
-16.92
-19.81
-22.96
-25.96
-28.06
-28.51
-26.76
-22.78
-17.05
-10.42
-3.74
2.31
7.38
11.32
14.06
15.59
15.91
15.17
13.67
11.86
10.18
8.97
8.30
8.03
7.88
7.59
7.05
6.37
5.75
5.43
5.47
5.71
5.80
5.36
4.15
2.23
-0.15
-2.57
-4.71
-6.43
-7.83
-9.10
-10.48
-12.19
-14.30
-16.88
-19.82
-22.83
-25.39
-26.79
-26.32
-23.56
-18.57
-11.91
-4.50
2.68
8.93
13.93
17.71
20.48
22.41
23.57
23.95
23.53
22.46
21.01
19.54
18.35
17.61
17.28
17.22
17.23
17.18
17.04
16.82
16.55
16.20
15.63
14.70
13.36
11.64
9.70
7.74
5.87
4.07
2.24
0.24
-1.99
-4.37
-6.72
-8.84
-10.67
-12.24
-13.74
-15.48
-17.72
-20.63
-24.15
-27.90
-31.19
-33.25
-33.34
-31.12
-26.72
-20.71
-13.89
-7.07
-0.81
4.54
8.81
11.94
13.90
14.71
14.54
13.61
12.26
10.80
9.49
8.51
7.93
7.75
7.91
8.32
8.83
9.33
9.72
9.93
9.91
9.62
9.01
8.09
6.95
5.75
4.69
3.95
3.53
3.31
3.04
2.48
1.53
0.26
-1.16
-2.53
-3.73
-4.72
-5.53
-6.25
-6.98
-7.84
-8.95
-10.41
-12.11
-13.74
-14.75
-14.46
-12.34
-8.18
-2.26
4.68
11.66
17.68
22.00
24.29
24.64
23.48
21.36
18.79
16.15
13.71
11.63
10.07
9.20
9.13
9.94
11.59
13.96
16.83
19.90
22.64
24.40
24.45
22.13
17.13
9.61
0.30
-9.69
-19.06
-26.69
-31.82
-34.24
-34.23
-32.44
-29.72
-26.89
-24.59
-23.20
-22.80
-23.18
-23.91
-24.38
-23.95
-22.06
-18.46
-13.24
-6.90
-0.18
6.18
11.57
15.72
18.61
20.42
21.36
21.64
21.39
20.73
19.79
18.67
17.59
16.68
16.09
15.90
16.08
16.56
17.24
17.96
18.65
19.21
19.53
19.49
19.00
17.96
16.46
14.70
12.97
11.58
10.71
10.34
10.33
10.43
10.40
10.06
9.28
8.09
6.70
5.45
4.87
5.49
7.63
11.36
16.37
22.11
27.90
33.16
37.42
40.32
41.47
40.54
37.36
32.00
24.93
16.91
8.94
1.97
-3.37
-6.97
-9.12
-10.17
-10.46
-10.03
-8.94
-7.08
-4.38
-0.95
2.81
6.36
9.89
13.76
18.56
24.48
31.70
40.57
51.31
63.55
76.24
87.65
95.53
98.30
94.51
83.95
67.83
48.67
29.65
13.62
1.95
-6.23
-10.73
-13.90
-18.52
-26.51
-38.31
-53.01
-68.96
-84.53
-98.58
-110.33
-119.72
-126.51
-130.45
-131.44
-129.84
-126.39
-122.04
-117.53
-113.09
-108.82
-104.38
-99.43
-93.94
-88.32
-83.27
-79.41
-76.88
-75.29
-74.04
-72.44
-70.19
-67.42
-64.72
-62.77
-61.90
-61.90
-62.14
-61.90
-60.67
-58.25
-54.70
-50.19
-44.86
-38.73
-31.70
-23.52
-13.56
-0.70
16.51
39.19
67.14
98.44
129.63
156.92
177.71
191.56
200.11
206.03
211.52
217.27
222.42
225.32
224.57
219.55
210.34
197.09
179.72
157.78
131.08
100.16
66.53
32.46
0.33
-28.07
-51.96
-71.55
-87.71
-101.39
-113.21
-123.21
-130.92
-135.70
-137.03
-134.80
-129.41
-121.74
-112.89
-103.89
-95.53
-88.25
-82.12
-77.04
-72.82
-69.30
-66.40
-64.01
-61.98
-60.13
-58.19
-55.92
-53.13
-49.81
-46.08
-42.18
-38.39
-34.93
-31.89
-29.24
-26.91
-24.78
-22.82
-21.08
-19.62
-18.47
-17.59
-16.91
-16.39
-16.02
-15.81
-15.72
-15.54
-14.96
-13.65
-11.38
-8.13
-4.14
0.25
4.61
8.54
11.70
13.85
14.82
14.63
13.47
11.71
9.78
8.00
6.56
5.54
4.90
4.62
4.69
5.04
5.59
6.18
6.65
6.95
7.09
7.15
7.20
7.19
6.94
6.26
4.99
3.15
1.01
-0.97
-2.30
-2.54
-1.48
0.77
3.87
7.39
10.88
14.05
16.70
18.69
19.90
20.18
19.42
17.68
15.19
12.35
9.65
7.42
5.87
4.98
4.60
4.49
4.45
4.33
4.04
3.52
2.76
1.77
0.56
-0.87
-2.48
-4.28
-6.29
-8.42
-10.51
-12.29
-13.34
-13.30
-11.89
-9.07
-5.10
-0.46
4.28
8.59
12.10
14.69
16.35
17.16
17.18
16.41
14.83
12.50
9.63
6.65
4.06
2.31
1.61
1.85
2.67
3.60
4.24
4.39
4.10
3.50
2.76
1.94
0.95
-0.36
-2.12
-4.41
-7.14
-10.08
-12.95
-15.34
-16.85
-17.13
-15.86
-12.97
-8.60
-3.17
2.69
8.26
12.89
16.16
17.94
18.39
17.82
16.55
14.85
12.94
10.97
9.16
7.71
6.80
6.45
6.53
6.80
7.00
7.00
6.80
6.52
6.25
6.01
5.70
5.18
4.42
3.41
2.25
1.01
-0.27
-1.63
-3.17
-4.97
-7.08
-9.42
-11.72
-13.54
-14.28
-13.40
-10.64
-6.19
-0.67
4.99
9.91
13.56
15.88
17.13
17.73
17.98
17.95
17.62
16.90
15.82
14.56
13.35
12.38
11.74
11.38
11.16
10.95
10.67
10.34
10.04
9.85
9.79
9.80
9.70
9.28
8.38
6.99
5.27
3.57
2.18
1.32
0.98
0.88
0.64
-0.07
-1.44
-3.42
-5.75
-8.06
-9.89
-10.81
-10.46
-8.64
-5.35
-0.96
3.96
8.72
12.67
15.47
17.07
17.66
17.53
16.86
15.71
14.09
12.04
9.77
7.62
5.95
5.01
4.84
5.27
6.01
6.78
7.37
7.69
7.75
7.59
7.28
6.84
6.29
5.59
4.72
3.68
2.54
1.35
0.21
-0.81
-1.68
-2.38
-2.92
-3.36
-3.75
-4.17
-4.79
-5.72
-7.03
-8.65
-10.33
-11.61
-11.98
-10.95
-8.34
-4.30
0.60
5.58
9.83
12.82
14.39
14.74
14.27
13.34
12.20
10.89
9.38
7.65
5.83
4.13
2.84
2.14
2.03
2.38
2.92
3.37
3.55
3.40
2.98
2.43
1.85
1.32
0.83
0.35
-0.18
-0.76
-1.41
-2.15
-3.01
-4.01
-5.13
-6.29
-7.38
-8.21
-8.69
-8.80
-8.69
-8.58
-8.77
-9.34
-10.14
-10.76
-10.63
-9.32
-6.69
-2.97
1.27
5.38
8.82
11.32
12.83
13.47
13.32
12.44
10.85
8.62
5.95
3.18
0.72
-1.08
-1.97
-1.97
-1.27
-0.20
0.87
1.67
2.10
2.10
1.76
1.11
0.13
-1.16
-2.75
-4.52
-6.26
-7.81
-9.01
-9.83
-10.36
-10.72
-10.99
-11.20
-11.32
-11.31
-11.18
-11.01
-10.94
-11.04
-11.28
-11.44
-11.17
-10.07
-7.91
-4.73
-0.83
3.27
7.05
10.09
12.14
13.17
13.28
12.62
11.35
9.65
7.66
5.56
3.53
1.70
0.22
-0.88
-1.57
-1.95
-2.11
-2.20
-2.32
-2.53
-2.83
-3.15
-3.49
-3.85
-4.25
-4.75
-5.35
-6.01
-6.67
-7.26
-7.69
-7.96
-8.08
-8.06
-8.01
-8.04
-8.29
-8.86
-9.69
-10.55
-11.02
-10.66
-9.19
-6.56
-3.04
0.89
4.67
7.82
10.00
11.10
11.16
10.33
8.86
7.01
5.08
3.30
1.86
0.79
0.06
-0.41
-0.77
-1.09
-1.43
-1.80
-2.18
-2.51
-2.78
-2.97
-3.17
-3.50
-4.08
-4.99
-6.13
-7.30
-8.27
-8.90
-9.16
-9.15
-9.03
-8.91
-8.87
-8.97
-9.21
-9.53
-9.70
-9.41
-8.38
-6.45
-3.75
-0.66
2.35
4.93
6.85
8.11
8.70
8.66
7.98
6.69
4.91
2.91
1.02
-0.45
-1.33
-1.62
-1.49
-1.16
-0.87
-0.73
-0.71
-0.75
-0.75
-0.72
-0.77
-1.00
-1.48
-2.17
-2.94
-3.66
-4.26
-4.75
-5.21
-5.74
-6.33
-6.97
-7.58
-7.98
-8.02
-7.48
-6.18
-4.02
-1.14
2.15
5.33
7.89
9.46
9.94
9.48
8.38
6.97
5.48
4.03
2.63
1.34
0.23
-0.56
-0.92
-0.82
-0.30
0.47
1.31
2.05
2.56
2.75
2.63
2.20
1.50
0.59
-0.43
-1.47
-2.48
-3.45
-4.41
-5.38
-6.31
-7.06
-7.40
-7.07
-5.93
-3.91
-1.20
1.84
4.79
7.19
8.70
9.21
8.78
7.66
6.13
4.45
2.78
1.20
-0.23
-1.41
-2.20
-2.49
-2.30
-1.84
-1.40
-1.24
-1.52
-2.19
-3.04
-3.91
-4.68
-5.35
-6.01
-6.71
-7.48
-8.37
-9.42
-10.70
-12.23
-13.88
-15.39
-16.37
-16.46
-15.46
-13.44
-10.67
-7.58
-4.55
-1.89
0.21
1.69
2.57
2.88
2.70
2.14
1.33
0.48
-0.28
-0.84
-1.21
-1.47
-1.76
-2.17
-2.72
-3.37
-4.03
-4.62
-5.13
-5.60
-6.10
-6.71
-7.45
-8.34
-9.37
-10.51
-11.78
-13.25
-14.97
-17.02
-19.34
-21.69
-23.63
-24.64
-24.27
-22.34
-19.01
-14.71
-10.04
-5.52
-1.56
1.65
4.08
5.78
6.85
7.41
7.55
7.36
6.96
6.48
6.05
5.81
5.82
6.04
6.35
6.60
6.68
6.57
6.29
5.87
5.28
4.46
3.34
1.93
0.32
-1.35
-2.96
-4.46
-5.82
-7.05
-8.17
-9.22
-10.35
-11.72
-13.55
-15.95
-18.87
-21.99
-24.79
-26.65
-26.99
-25.45
-22.01
-17.00
-11.04
-4.86
0.86
5.71
9.58
12.53
14.67
16.08
16.68
16.44
15.49
14.11
12.72
11.71
11.26
11.37
11.87
12.60
13.43
14.36
15.29
16.13
16.74
16.95
16.71
16.09
15.18
14.09
12.87
11.47
9.91
8.21
6.49
4.90
3.51
2.32
1.23
0.05
-1.36
-3.11
-5.18
-7.49
-9.83
-12.00
-13.79
-15.11
-16.07
-16.94
-18.11
-19.90
-22.37
-25.07
-27.27
-28.07
-26.81
-23.29
-17.82
-11.12
-4.00
2.84
8.92
13.97
17.89
20.63
22.23
22.79
22.51
21.69
20.62
19.57
18.73
18.23
18.08
18.26
18.68
19.20
19.71
20.11
20.36
20.45
20.42
20.26
20.00
19.60
19.01
18.22
17.19
15.95
14.63
13.32
12.13
11.10
10.14
9.12
7.96
6.62
5.18
3.73
2.35
1.04
-0.27
-1.61
-2.96
-4.23
-5.24
-5.89
-6.22
-6.42
-6.82
-7.73
-9.34
-11.55
-13.96
-15.93
-16.73
-15.78
-12.87
-8.22
-2.50
3.46
8.91
13.39
16.82
19.36
21.21
22.48
23.08
22.86
21.83
20.21
18.41
16.90
15.93
15.52
15.50
15.60
15.69
15.77
15.87
16.06
16.32
16.55
16.72
16.81
16.83
16.80
16.65
16.30
15.65
14.70
13.49
12.12
10.72
9.38
8.17
7.16
6.35
5.70
5.08
4.31
3.31
2.05
0.65
-0.70
-1.87
-2.85
-3.75
-4.83
-6.29
-8.29
-10.72
-13.26
-15.37
-16.47
-16.12
-14.22
-10.99
-6.89
-2.51
1.69
5.40
8.46
10.79
12.34
13.06
12.96
12.21
11.04
9.75
8.58
7.65
6.97
6.55
6.35
6.46
6.90
7.66
8.61
9.54
10.24
10.61
10.70
10.66
10.70
10.90
11.18
11.39
11.29
10.77
9.89
8.80
7.69
6.70
5.81
4.92
3.91
2.71
1.40
0.11
-1.02
-1.92
-2.64
-3.32
-4.10
-5.08
-6.34
-7.88
-9.69
-11.67
-13.63
-15.18
-15.88
-15.33
-13.38
-10.22
-6.34
-2.42
1.02
3.65
5.44
6.52
7.06
7.16
6.85
6.15
5.18
4.14
3.28
2.78
2.73
3.04
3.51
3.95
4.24
4.40
4.53
4.73
5.05
5.43
5.75
5.93
5.92
5.71
5.36
4.88
4.31
3.68
3.12
2.71
2.55
2.58
2.66
2.58
2.14
1.28
0.08
-1.25
-2.54
-3.63
-4.54
-5.36
-6.26
-7.38
-8.86
-10.70
-12.77
-14.80
-16.36
-17.01
-16.38
-14.35
-11.14
-7.23
-3.26
0.21
2.81
4.41
5.11
5.12
4.70
4.09
3.49
3.01
2.68
2.45
2.25
2.08
1.98
2.02
2.28
2.72
3.22
3.66
3.98
4.22
4.49
4.83
5.23
5.61
5.83
5.84
5.68
5.42
5.13
4.86
4.56
4.18
3.69
3.08
2.36
1.54
0.61
-0.38
-1.39
-2.39
-3.38
-4.40
-5.53
-6.75
-8.02
-9.17
-9.96
-10.18
-9.70
-8.47
-6.59
-4.22
-1.58
1.07
3.48
5.46
6.87
7.66
7.90
7.72
7.28
6.79
6.37
6.05
5.79
5.50
5.09
4.56
3.97
3.42
3.01
2.80
2.80
2.98
3.32
3.82
4.42
5.06
5.62
5.95
5.94
5.56
4.90
4.10
3.33
2.70
2.22
1.82
1.39
0.83
0.10
-0.83
-1.93
-3.16
-4.51
-5.94
-7.48
-9.10
-10.70
-12.12
-13.05
-13.17
-12.22
-10.20
-7.35
-4.13
-1.03
1.55
3.42
4.56
5.06
4.97
4.37
3.38
2.15
0.97
0.09
-0.34
-0.38
-0.23
-0.16
-0.34
-0.77
-1.29
-1.68
-1.84
-1.73
-1.46
-1.18
-0.95
-0.78
-0.68
-0.69
-0.92
-1.50
-2.46
-3.71
-5.00
-6.07
-6.75
-7.08
-7.26
-7.63
-8.44
-9.81
-11.67
-13.74
-15.63
-16.95
-17.34
-16.59
-14.73
-11.98
-8.76
-5.57
-2.81
-0.73
0.62
1.32
1.53
1.36
0.91
0.29
-0.41
-1.00
-1.39
-1.51
-1.41
-1.20
-1.03
-0.96
-1.04
-1.24
-1.51
-1.80
-2.05
-2.21
-2.28
-2.36
-2.59
-3.14
-4.04
-5.16
-6.27
-7.09
-7.48
-7.53
-7.48
-7.64
-8.24
-9.34
-10.83
-12.55
-14.20
-15.48
-16.06
-15.62
-14.04
-11.46
-8.25
-4.95
-2.02
0.28
1.93
3.07
3.85
4.33
4.46
4.14
3.40
2.42
1.45
0.72
0.37
0.33
0.46
0.59
0.62
0.57
0.48
0.41
0.35
0.29
0.15
-0.07
-0.38
-0.75
-1.18
-1.72
-2.44
-3.38
-4.50
-5.76
-7.00
-8.14
-9.14
-10.04
-10.94
-11.98
-13.24
-14.70
-16.19
-17.44
-18.13
-17.96
-16.75
-14.48
-11.32
-7.61
-3.78
-0.25
2.62
4.64
5.79
6.18
6.02
5.49
4.76
3.97
3.22
2.59
2.18
1.96
1.88
1.80
1.65
1.40
1.16
1.07
1.25
1.70
2.36
3.03
3.54
3.76
3.61
3.05
2.12
0.85
-0.66
-2.35
-4.07
-5.68
-7.04
-8.01
-8.60
-8.87
-9.02
-9.32
-10.02
-11.22
-12.78
-14.33
-15.30
-15.17
-13.65
-10.83
-7.11
-3.10
0.66
3.80
6.19
7.89
8.99
9.57
9.70
9.40
8.79
8.03
7.31
6.77
6.46
6.36
6.40
6.52
6.69
6.93
7.25
7.65
8.11
8.53
8.81
8.89
8.77
8.49
8.16
7.86
7.61
7.35
6.95
6.30
5.34
4.14
2.81
1.55
0.45
-0.47
-1.25
-2.01
-2.88
-3.98
-5.43
-7.29
-9.51
-11.89
-14.00
-15.33
-15.44
-14.13
-11.56
-8.13
-4.36
-0.72
2.52
5.23
7.37
8.90
9.82
10.12
9.88
9.30
8.60
8.00
7.68
7.72
8.16
8.91
9.77
10.56
11.11
11.38
11.45
11.41
11.33
11.16
10.80
10.23
9.56
8.96
8.63
8.58
8.66
8.60
8.22
7.49
6.57
5.65
4.88
4.25
3.66
2.98
2.12
0.96
-0.60
-2.66
-5.23
-8.11
-10.86
-12.89
-13.65
-12.79
-10.36
-6.69
-2.34
2.03
5.84
8.69
10.41
11.04
10.77
9.87
8.61
7.20
5.74
4.27
2.84
1.49
0.34
-0.51
-1.01
-1.13
-0.97
-0.63
-0.21
0.17
0.45
0.58
0.47
0.07
-0.66
-1.70
-2.90
-4.12
-5.18
-6.02
-6.64
-7.10
-7.50
-7.94
-8.57
-9.57
-11.10
-13.18
-15.59
-17.88
-19.47
-19.85
-18.84
-16.58
-13.51
-10.15
-6.91
-3.98
-1.45
0.68
2.35
3.46
3.94
3.80
3.16
2.24
1.25
0.35
-0.29
-0.61
-0.59
-0.24
0.34
0.98
1.52
1.86
1.97
1.93
1.78
1.53
1.11
0.37
-0.75
-2.26
-4.05
-5.94
-7.75
-9.34
-10.63
-11.64
-12.51
-13.46
-14.75
-16.56
-18.84
-21.31
-23.44
-24.63
-24.41
-22.60
-19.33
-15.01
-10.20
-5.45
-1.20
2.30
4.92
6.70
7.78
8.31
8.46
8.40
8.22
7.98
7.77
7.58
7.41
7.23
6.96
6.56
6.08
5.61
5.34
5.39
5.77
6.33
6.83
6.95
6.53
5.52
4.04
2.28
0.44
-1.38
-3.13
-4.79
-6.35
-7.82
-9.27
-10.79
-12.51
-14.54
-16.87
-19.35
-21.69
-23.51
-24.34
-23.86
-21.89
-18.46
-13.90
-8.65
-3.22
1.92
6.47
10.25
13.19
15.29
16.57
17.05
16.87
16.18
15.21
14.23
13.47
13.10
13.17
13.61
14.26
14.94
15.47
15.77
15.90
15.97
16.07
16.18
16.16
15.82
15.07
13.93
12.57
11.24
10.07
9.04
7.98
6.70
5.15
3.40
1.62
-0.02
-1.47
-2.75
-3.91
-5.04
-6.21
-7.53
-9.23
-11.48
-14.30
-17.40
-20.15
-21.73
-21.47
-19.07
-14.73
-9.15
-3.19
2.36
7.00
10.58
13.23
15.15
16.54
17.46
17.87
17.76
17.18
16.24
15.14
14.08
13.25
12.77
12.68
12.96
13.51
14.15
14.73
15.13
15.25
15.09
14.70
14.12
13.38
12.52
11.59
10.66
9.81
9.12
8.66
8.40
8.22
7.96
7.39
6.34
4.83
2.99
1.09
-0.64
-2.05
-3.19
-4.20
-5.34
-6.80
-8.67
-10.91
-13.27
-15.35
-16.62
-16.62
-15.08
-12.06
-7.99
-3.47
0.84
4.53
7.36
9.38
10.71
11.44
11.63
11.31
10.50
9.35
8.07
6.85
5.87
5.21
4.83
4.68
4.72
4.91
5.22
5.64
6.05
6.36
6.49
6.39
6.13
5.74
5.21
4.51
3.56
2.33
0.89
-0.60
-1.94
-3.00
-3.78
-4.41
-5.13
-6.14
-7.54
-9.24
-11.09
-12.91
-14.49
-15.71
-16.33
-16.12
-14.81
-12.29
-8.69
-4.40
-0.01
3.97
7.20
9.60
11.27
12.33
12.83
12.71
11.92
10.53
8.71
6.80
5.10
3.86
3.18
3.03
3.28
3.72
4.15
4.37
4.27
3.84
3.15
2.32
1.40
0.42
-0.67
-1.95
-3.43
-5.05
-6.68
-8.18
-9.42
-10.41
-11.22
-12.01
-12.95
-14.17
-15.69
-17.47
-19.34
-21.00
-22.15
-22.40
-21.48
-19.31
-16.06
-12.16
-8.14
-4.52
-1.68
0.25
1.31
1.68
1.61
1.35
1.06
0.82
0.69
0.59
0.47
0.32
0.21
0.21
0.45
1.00
1.79
2.75
3.69
4.45
4.89
4.94
4.56
3.80
2.70
1.38
-0.06
-1.54
-2.97
-4.32
-5.61
-6.86
-8.07
-9.24
-10.30
-11.26
-12.21
-13.31
-14.78
-16.70
-18.93
-21.08
-22.59
-22.91
-21.72
-19.04
-15.18
-10.69
-6.13
-1.98
1.49
4.23
6.33
7.93
9.16
10.04
10.54
10.63
10.32
9.75
9.10
8.51
8.08
7.80
7.62
7.53
7.57
7.79
8.21
8.75
9.26
9.58
9.61
9.30
8.69
7.84
6.76
5.51
4.18
2.85
1.67
0.66
-0.20
-1.03
-1.95
-2.97
-4.03
-5.06
-6.02
-6.93
-7.89
-8.98
-10.15
-11.33
-12.43
-13.45
-14.56
-15.94
-17.69
-19.68
-21.48
-22.52
-22.31
-20.59
-17.47
-13.40
-8.94
-4.64
-0.89
2.17
4.54
6.30
7.57
8.40
8.87
9.04
8.97
8.75
8.47
8.18
7.95
7.79
7.70
7.71
7.83
8.08
8.50
9.05
9.63
10.05
10.11
9.73
8.95
7.98
7.08
6.40
5.92
5.43
4.69
3.55
2.04
0.36
-1.23
-2.55
-3.56
-4.34
-5.03
-5.72
-6.43
-7.10
-7.67
-8.11
-8.47
-8.91
-9.59
-10.63
-12.05
-13.72
-15.41
-16.82
-17.62
-17.51
-16.32
-13.96
-10.54
-6.36
-1.86
2.47
6.19
8.97
10.69
11.42
11.39
10.90
10.25
9.68
9.27
9.04
8.96
8.98
9.06
9.20
9.37
9.57
9.82
10.09
10.41
10.75
11.08
11.37
11.55
11.57
11.37
10.92
10.24
9.38
8.47
7.60
6.86
6.25
5.67
5.08
4.43
3.80
3.26
2.83
2.44
1.91
1.01
-0.41
-2.33
-4.58
-6.83
-8.70
-9.90
-10.22
-9.63
-8.28
-6.44
-4.44
-2.59
-1.10
-0.10
0.34
0.29
-0.18
-0.94
-1.83
-2.67
-3.33
-3.71
-3.81
-3.67
-3.36
-2.99
-2.61
-2.24
-1.89
-1.51
-1.08
-0.65
-0.26
-0.05
-0.12
-0.53
-1.23
-2.10
-2.95
-3.64
-4.13
-4.46
-4.80
-5.33
-6.21
-7.54
-9.27
-11.21
-13.07
-14.43
-14.92
-14.26
-12.39
-9.50
-6.01
-2.40
0.85
3.48
5.37
6.54
7.07
7.02
6.44
5.41
4.09
2.71
1.50
0.63
0.09
-0.20
-0.38
-0.52
-0.63
-0.64
-0.58
-0.47
-0.48
-0.75
-1.37
-2.35
-3.61
-4.97
-6.28
-7.43
-8.38
-9.21
-10.13
-11.32
-12.96
-15.00
-17.17
-19.02
-19.99
-19.65
-17.82
-14.64
-10.51
-6.01
-1.70
1.98
4.73
6.45
7.13
6.89
5.88
4.36
2.66
1.11
-0.02
-0.60
-0.69
-0.52
-0.34
-0.32
-0.50
-0.80
-1.08
-1.24
-1.28
-1.29
-1.45
-1.91
-2.77
-4.00
-5.42
-6.81
-8.01
-9.01
-10.03
-11.36
-13.23
-15.58
-18.01
-19.86
-20.53
-19.60
-17.08
-13.31
-8.81
-4.12
0.34
4.30
7.63
10.22
12.00
12.96
13.10
12.57
11.60
10.50
9.57
9.04
8.92
9.07
9.22
9.13
8.72
8.11
7.53
7.18
7.13
7.26
7.32
7.04
6.25
4.94
3.21
1.29
-0.60
-2.29
-3.69
-4.79
-5.68
-6.52
-7.55
-9.03
-11.08
-13.68
-16.47
-18.87
-20.24
-20.01
-18.00
-14.43
-9.88
-5.03
-0.47
3.51
6.85
9.63
11.88
13.56
14.58
14.88
14.61
14.03
13.51
13.29
13.45
13.90
14.41
14.75
14.83
14.70
14.46
14.26
14.16
14.17
14.25
14.27
14.16
13.82
13.21
12.29
11.12
9.75
8.31
6.90
5.60
4.43
3.37
2.37
1.38
0.33
-0.88
-2.33
-4.05
-6.02
-8.06
-9.96
-11.47
-12.49
-13.12
-13.66
-14.53
-16.09
-18.41
-21.20
-23.85
-25.64
-25.89
-24.29
-20.91
-16.18
-10.70
-5.11
0.07
4.51
8.09
10.81
12.78
14.12
14.95
15.40
15.58
15.61
15.58
15.57
15.53
15.43
15.22
14.89
14.52
14.23
14.11
14.20
14.45
14.76
15.04
15.18
15.12
14.87
14.45
13.93
13.35
12.76
12.10
11.36
10.43
9.32
8.06
6.74
5.47
4.36
3.40
2.58
1.82
0.98
0.00
-1.13
-2.33
-3.45
-4.32
-4.87
-5.17
-5.45
-6.03
-7.23
-9.14
-11.61
-14.19
-16.29
-17.29
-16.81
-14.81
-11.61
-7.72
-3.73
-0.05
3.08
5.59
7.46
8.69
9.28
9.29
8.83
8.06
7.13
6.17
5.29
4.63
4.31
4.41
4.90
5.58
6.23
6.66
6.84
6.86
6.90
7.02
7.16
7.21
7.01
6.51
5.82
5.09
4.47
4.04
3.77
3.55
3.26
2.76
2.03
1.13
0.20
-0.56
-1.05
-1.31
-1.51
-1.82
-2.43
-3.41
-4.72
-6.29
-8.04
-9.83
-11.46
-12.64
-13.03
-12.39
-10.63
-7.95
-4.72
-1.44
1.48
3.73
5.23
5.99
6.18
5.94
5.43
4.79
4.12
3.48
2.93
2.47
2.09
1.75
1.39
1.02
0.71
0.57
0.70
1.12
1.73
2.37
2.85
3.01
2.78
2.19
1.35
0.45
-0.37
-1.03
-1.51
-1.88
-2.23
-2.64
-3.17
-3.85
-4.69
-5.71
-6.86
-8.03
-9.04
-9.82
-10.39
-11.03
-11.99
-13.45
-15.28
-17.03
-18.15
-18.19
-16.96
-14.62
-11.54
-8.13
-4.76
-1.65
0.99
3.01
4.26
4.75
4.56
3.90
3.06
2.23
1.57
1.13
0.90
0.79
0.74
0.69
0.63
0.64
0.76
1.01
1.36
1.70
1.92
1.92
1.66
1.16
0.52
-0.18
-0.86
-1.51
-2.13
-2.74
-3.41
-4.17
-5.02
-5.92
-6.78
-7.49
-7.98
-8.23
-8.31
-8.38
-8.65
-9.31
-10.47
-12.10
-13.98
-15.75
-16.94
-17.12
-16.03
-13.68
-10.38
-6.62
-2.95
0.22
2.66
4.42
5.59
6.32
6.71
6.80
6.68
6.41
6.05
5.62
5.12
4.50
3.81
3.15
2.63
2.43
2.62
3.20
4.03
4.91
5.59
5.91
5.78
5.24
4.45
3.56
2.73
2.03
1.44
0.91
0.37
-0.23
-0.94
-1.74
-2.63
-3.59
-4.57
-5.53
-6.43
-7.29
-8.14
-9.03
-10.04
-11.24
-12.67
-14.30
-16.06
-17.72
-19.01
-19.58
-19.07
-17.36
-14.49
-10.81
-6.83
-3.08
0.07
2.46
4.14
5.28
6.06
6.62
7.00
7.21
7.26
7.17
7.00
6.86
6.86
7.04
7.38
7.70
7.87
7.82
7.54
7.17
6.85
6.59
6.34
6.01
5.54
5.00
4.52
4.15
3.86
3.51
2.93
2.04
0.90
-0.39
-1.64
-2.81
-3.88
-4.86
-5.77
-6.59
-7.29
-7.94
-8.61
-9.41
-10.41
-11.67
-13.14
-14.77
-16.41
-17.85
-18.74
-18.69
-17.42
-14.87
-11.27
-7.16
-3.08
0.52
3.52
6.00
8.10
9.86
11.19
11.94
12.03
11.57
10.82
10.04
9.43
9.02
8.72
8.48
8.28
8.16
8.20
8.43
8.83
9.36
9.92
10.38
10.61
10.46
9.88
8.96
7.88
6.83
5.92
5.11
4.31
3.47
2.61
1.86
1.33
0.96
0.59
0.00
-0.94
-2.16
-3.47
-4.67
-5.69
-6.63
-7.70
-9.02
-10.54
-12.00
-13.00
-13.18
-12.33
-10.44
-7.69
-4.39
-0.90
2.41
5.23
7.35
8.69
9.27
9.27
8.87
8.30
7.72
7.23
6.87
6.66
6.54
6.51
6.56
6.70
6.94
7.25
7.56
7.80
7.89
7.76
7.46
7.02
6.50
5.97
5.45
4.91
4.36
3.73
2.94
1.94
0.68
-0.75
-2.26
-3.65
-4.83
-5.76
-6.53
-7.31
-8.24
-9.45
-10.93
-12.52
-13.94
-14.82
-14.78
-13.64
-11.39
-8.27
-4.70
-1.11
2.13
4.78
6.70
7.85
8.24
7.94
7.08
5.86
4.55
3.36
2.49
2.02
1.95
2.14
2.42
2.60
2.54
2.24
1.83
1.51
1.44
1.67
2.04
2.24
1.97
1.05
-0.47
-2.28
-3.99
-5.32
-6.16
-6.67
-7.14
-7.83
-8.88
-10.29
-11.96
-13.70
-15.33
-16.60
-17.20
-16.88
-15.44
-12.90
-9.52
-5.68
-1.87
1.56
4.40
6.56
8.05
8.87
9.00
8.47
7.44
6.13
4.87
3.94
3.52
3.60
4.05
4.64
5.18
5.52
5.57
5.30
4.73
3.96
3.11
2.34
1.75
1.30
0.83
0.16
-0.85
-2.17
-3.61
-4.92
-5.94
-6.70
-7.41
-8.38
-9.90
-12.04
-14.68
-17.43
-19.77
-21.16
-21.13
-19.48
-16.32
-12.02
-7.19
-2.48
1.60
4.76
6.98
8.42
9.26
9.67
9.73
9.48
8.99
8.35
7.67
7.06
6.59
6.30
6.17
6.18
6.29
6.50
6.76
7.00
7.12
7.04
6.68
6.06
5.19
4.08
2.75
1.19
-0.55
-2.38
-4.17
-5.76
-7.05
-8.09
-9.02
-10.07
-11.46
-13.37
-15.77
-18.48
-21.13
-23.26
-24.35
-23.98
-21.98
-18.42
-13.64
-8.19
-2.67
2.40
6.65
9.89
12.10
13.34
13.77
13.57
13.00
12.33
11.81
11.58
11.67
11.98
12.38
12.74
12.96
12.99
12.83
12.47
11.91
11.23
10.50
9.83
9.26
8.72
8.08
7.27
6.21
4.94
3.56
2.14
0.69
-0.80
-2.40
-4.10
-5.80
-7.35
-8.64
-9.68
-10.70
-12.01
-13.91
-16.49
-19.52
-22.50
-24.74
-25.61
-24.69
-21.91
-17.57
-12.25
-6.67
-1.44
3.02
6.60
9.37
11.52
13.17
14.37
15.10
15.37
15.26
14.93
14.58
14.33
14.22
14.21
14.18
14.08
13.93
13.84
13.90
14.17
14.53
14.76
14.67
14.06
12.98
11.58
10.11
8.75
7.62
6.68
5.83
4.94
3.89
2.63
1.11
-0.61
-2.46
-4.34
-6.13
-7.74
-9.15
-10.41
-11.62
-12.94
-14.49
-16.36
-18.50
-20.62
-22.26
-22.84
-21.88
-19.15
-14.89
-9.63
-4.12
0.96
5.21
8.51
10.93
12.60
13.59
13.91
13.65
12.99
12.24
11.70
11.51
11.65
11.94
12.19
12.33
12.44
12.64
13.01
13.49
13.87
13.96
13.64
12.93
12.02
11.11
10.31
9.65
9.00
8.21
7.16
5.83
4.29
2.66
1.07
-0.42
-1.82
-3.18
-4.51
-5.79
-6.94
-7.95
-8.83
-9.78
-11.07
-12.90
-15.30
-17.96
-20.38
-21.93
-22.16
-20.84
-18.08
-14.22
-9.66
-4.87
-0.21
3.97
7.40
9.90
11.44
12.12
12.14
11.73
11.14
10.52
9.95
9.47
9.10
8.82
8.60
8.45
8.34
8.33
8.48
8.80
9.29
9.78
10.07
9.96
9.34
8.27
6.93
5.50
4.13
2.86
1.57
0.14
-1.46
-3.20
-4.93
-6.53
-7.89
-8.99
-9.86
-10.59
-11.27
-12.02
-12.99
-14.30
-15.96
-17.88
-19.76
-21.20
-21.73
-20.95
-18.67
-14.96
-10.17
-4.83
0.44
5.10
8.81
11.47
13.13
13.92
14.02
13.56
12.70
11.61
10.49
9.51
8.80
8.41
8.25
8.26
8.32
8.41
8.53
8.72
8.99
9.30
9.52
9.46
8.96
7.95
6.53
4.90
3.36
2.06
1.03
0.11
-0.93
-2.27
-3.91
-5.69
-7.38
-8.76
-9.73
-10.39
-10.90
-11.52
-12.47
-13.91
-15.92
-18.42
-21.13
-23.56
-25.15
-25.35
-23.83
-20.63
-16.14
-10.94
-5.67
-0.82
3.35
6.68
9.18
10.86
11.80
12.12
12.00
11.62
11.18
10.76
10.39
10.09
9.83
9.64
9.55
9.60
9.82
10.19
10.61
10.99
11.15
10.97
10.38
9.44
8.26
7.01
5.85
4.84
4.00
3.27
2.56
1.73
0.71
-0.56
-2.02
-3.54
-4.93
-6.07
-6.93
-7.67
-8.56
-9.88
-11.76
-14.08
-16.48
-18.42
-19.36
-18.97
-17.13
-13.97
-9.81
-5.05
-0.12
4.55
8.53
11.49
13.25
13.91
13.72
13.04
12.21
11.43
10.78
10.23
9.77
9.42
9.23
9.19
9.28
9.38
9.39
9.25
8.95
8.53
8.03
7.46
6.77
5.98
5.08
4.11
3.11
2.06
0.93
-0.32
-1.73
-3.26
-4.79
-6.19
-7.35
-8.25
-9.01
-9.84
-10.99
-12.58
-14.56
-16.60
-18.24
-18.98
-18.43
-16.51
-13.36
-9.39
-5.04
-0.71
3.27
6.69
9.39
11.24
12.12
12.03
11.10
9.60
7.91
6.38
5.27
4.68
4.53
4.66
4.91
5.09
5.15
5.08
4.96
4.84
4.77
4.68
4.46
3.92
2.92
1.45
-0.34
-2.16
-3.69
-4.79
-5.49
-6.02
-6.71
-7.77
-9.28
-11.11
-13.11
-15.03
-16.69
-17.83
-18.13
-17.29
-15.06
-11.46
-6.84
-1.84
2.81
6.46
8.83
9.91
9.99
9.42
8.49
7.40
6.23
5.05
3.93
2.99
2.29
1.85
1.59
1.42
1.26
1.14
1.07
1.07
1.04
0.81
0.20
-0.88
-2.36
-4.07
-5.82
-7.44
-8.86
-10.14
-11.42
-12.85
-14.55
-16.52
-18.55
-20.29
-21.26
-21.02
-19.39
-16.41
-12.43
-7.94
-3.44
0.72
4.27
7.08
9.06
10.16
10.43
9.98
9.01
7.75
6.46
5.32
4.40
3.69
3.10
2.58
2.15
1.89
1.92
2.25
2.76
3.21
3.30
2.83
1.74
0.17
-1.64
-3.49
-5.21
-6.77
-8.23
-9.74
-11.48
-13.64
-16.27
-19.15
-21.84
-23.69
-24.07
-22.64
-19.41
-14.80
-9.47
-4.06
0.89
5.07
8.35
10.74
12.24
12.93
12.90
12.29
11.31
10.20
9.16
8.31
7.66
7.12
6.66
6.26
6.02
6.08
6.47
7.10
7.71
7.98
7.61
6.53
4.83
2.78
0.67
-1.27
-2.98
-4.50
-5.92
-7.36
-8.95
-10.83
-13.09
-15.75
-18.64
-21.31
-23.17
-23.58
-22.12
-18.80
-14.00
-8.39
-2.66
2.63
7.22
10.99
13.94
16.04
17.21
17.42
16.76
15.49
13.99
12.64
11.71
11.27
11.24
11.45
11.79
12.19
12.64
13.16
13.71
14.19
14.48
14.45
14.02
13.24
12.21
11.08
9.97
8.93
7.91
6.83
5.63
4.28
2.86
1.49
0.27
-0.83
-1.89
-3.09
-4.55
-6.31
-8.25
-10.23
-12.07
-13.67
-15.03
-16.19
-17.27
-18.47
-19.97
-22.00
-24.61
-27.62
-30.51
-32.53
-32.91
-31.13
-27.11
-21.30
-14.57
-7.84
-1.86
2.93
6.55
9.28
11.45
13.38
15.18
16.78
18.04
18.82
19.12
19.07
18.90
18.74
18.68
18.71
18.74
18.76
18.77
18.83
18.99
19.25
19.49
19.58
19.33
18.62
17.41
15.78
13.94
12.17
10.74
9.78
9.25
8.83
8.15
6.91
5.03
2.72
0.32
-1.76
-3.33
-4.39
-5.15
-5.87
-6.77
-7.92
-9.22
-10.53
-11.67
-12.57
-13.34
-14.20
-15.42
-17.30
-19.94
-23.28
-26.98
-30.51
-33.19
-34.34
-33.49
-30.45
-25.47
-19.12
-12.17
-5.45
0.44
5.17
8.73
11.34
13.25
14.69
15.77
16.52
16.91
16.98
16.81
16.54
16.32
16.22
16.22
16.24
16.22
16.12
16.00
15.94
15.96
16.02
15.95
15.61
14.87
13.74
12.34
10.85
9.46
8.30
7.36
6.55
5.73
4.81
3.75
2.57
1.31
0.03
-1.25
-2.51
-3.78
-5.08
-6.47
-7.95
-9.49
-11.02
-12.40
-13.54
-14.41
-15.07
-15.67
-16.43
-17.55
-19.19
-21.30
-23.62
-25.63
-26.70
-26.24
-23.98
-20.02
-14.85
-9.16
-3.65
1.18
5.10
8.07
10.19
11.59
12.38
12.67
12.58
12.27
11.87
11.52
11.32
11.27
11.34
11.48
11.62
11.72
11.80
11.88
12.00
12.14
12.27
12.28
12.08
11.57
10.72
9.61
8.37
7.17
6.12
5.24
4.45
3.65
2.75
1.73
0.63
-0.49
-1.54
-2.54
-3.51
-4.53
-5.64
-6.85
-8.10
-9.31
-10.42
-11.46
-12.50
-13.71
-15.23
-17.09
-19.19
-21.26
-22.87
-23.58
-23.02
-21.01
-17.61
-13.12
-8.00
-2.76
2.09
6.19
9.30
11.37
12.49
12.86
12.69
12.20
11.54
10.85
10.22
9.73
9.42
9.31
9.33
9.39
9.43
9.40
9.31
9.22
9.17
9.19
9.27
9.36
9.41
9.27
8.84
7.97
6.69
5.09
3.44
2.02
1.00
0.35
-0.13
-0.75
-1.73
-3.11
-4.74
-6.32
-7.64
-8.61
-9.30
-9.91
-10.59
-11.43
-12.46
-13.69
-15.11
-16.74
-18.43
-19.89
-20.62
-20.11
-18.07
-14.54
-9.97
-5.01
-0.34
3.60
6.66
8.88
10.43
11.39
11.81
11.72
11.20
10.39
9.46
8.56
7.81
7.29
7.01
6.99
7.22
7.63
8.14
8.70
9.25
9.76
10.14
10.25
9.93
9.09
7.83
6.38
5.07
4.10
3.47
2.95
2.22
1.04
-0.62
-2.57
-4.45
-5.98
-7.00
-7.56
-7.84
-8.10
-8.53
-9.33
-10.55
-12.13
-13.89
-15.52
-16.62
-16.78
-15.73
-13.45
-10.15
-6.29
-2.38
1.14
3.98
6.05
7.38
8.00
7.97
7.34
6.22
4.80
3.36
2.14
1.31
0.91
0.88
1.11
1.46
1.85
2.24
2.65
3.07
3.50
3.90
4.17
4.20
3.92
3.30
2.40
1.36
0.31
-0.63
-1.36
-1.93
-2.43
-3.06
-4.02
-5.46
-7.33
-9.39
-11.14
-12.04
-11.69
-10.01
-7.20
-3.70
-0.01
3.44
6.37
8.59
10.02
10.62
10.48
9.75
8.66
7.43
6.22
5.05
3.92
2.81
1.75
0.77
-0.08
-0.78
-1.36
-1.80
-2.11
-2.31
-2.48
-2.72
-3.12
-3.73
-4.49
-5.36
-6.27
-7.27
-8.50
-10.06
-11.98
-14.07
-15.95
-17.21
-17.45
-16.44
-14.20
-10.94
-7.07
-3.09
0.53
3.46
5.54
6.78
7.28
7.15
6.47
5.31
3.75
1.97
0.23
-1.22
-2.18
-2.63
-2.69
-2.54
-2.36
-2.27
-2.27
-2.33
-2.45
-2.63
-2.94
-3.48
-4.30
-5.46
-6.98
-8.86
-11.10
-13.60
-16.17
-18.46
-19.98
-20.28
-19.05
-16.27
-12.29
-7.69
-3.13
0.85
3.96
6.16
7.51
8.12
8.08
7.46
6.38
5.06
3.76
2.73
2.12
1.88
1.89
1.93
1.85
1.54
1.02
0.36
-0.34
-1.01
-1.65
-2.28
-2.98
-3.81
-4.77
-5.89
-7.20
-8.74
-10.60
-12.76
-14.99
-16.87
-17.80
-17.28
-15.10
-11.41
-6.72
-1.69
3.08
7.16
10.35
12.63
14.00
14.52
14.28
13.47
12.34
11.20
10.28
9.68
9.34
9.05
8.65
8.04
7.31
6.62
6.17
6.02
6.06
6.07
5.77
4.98
3.67
1.98
0.12
-1.69
-3.30
-4.70
-6.03
-7.52
-9.39
-11.75
-14.48
-17.17
-19.27
-20.19
-19.50
-17.14
-13.34
-8.63
-3.58
1.28
5.62
9.22
12.04
14.08
15.36
15.97
16.02
15.68
15.17
14.68
14.32
14.16
14.18
14.32
14.56
14.86
15.21
15.60
16.00
16.33
16.50
16.45
16.12
15.53
14.72
13.76
12.68
11.49
10.17
8.72
7.19
5.67
4.28
3.07
2.02
1.05
0.08
-0.93
-1.96
-3.02
-4.11
-5.31
-6.65
-8.09
-9.55
-10.91
-12.09
-13.18
-14.32
-15.74
-17.55
-19.72
-22.04
-24.11
-25.43
-25.53
-24.06
-20.95
-16.47
-11.16
-5.67
-0.63
3.56
6.79
9.10
10.65
11.60
12.02
12.00
11.62
10.97
10.21
9.50
8.98
8.74
8.80
9.08
9.50
9.98
10.43
10.82
11.11
11.24
11.20
10.95
10.49
9.84
9.04
8.10
7.04
5.86
4.62
3.40
2.32
1.46
0.82
0.27
-0.31
-1.05
-1.98
-3.04
-4.11
-5.11
-6.00
-6.82
-7.62
-8.49
-9.49
-10.70
-12.14
-13.82
-15.59
-17.14
-18.03
-17.81
-16.24
-13.34
-9.46
-5.14
-0.90
2.87
5.97
8.29
9.80
10.47
10.34
9.58
8.48
7.38
6.56
6.18
6.21
6.54
7.00
7.48
7.93
8.30
8.62
8.89
9.13
9.35
9.52
9.58
9.43
8.99
8.22
7.18
5.96
4.72
3.61
2.74
2.11
1.67
1.27
0.79
0.15
-0.62
-1.39
-1.97
-2.30
-2.42
-2.59
-3.09
-4.15
-5.77
-7.70
-9.51
-10.73
-11.02
-10.21
-8.37
-5.71
-2.49
0.95
4.29
7.21
9.42
10.75
11.20
10.88
10.01
8.85
7.61
6.44
5.45
4.69
4.21
4.04
4.15
4.48
4.91
5.27
5.48
5.48
5.32
5.11
4.95
4.88
4.82
4.62
4.13
3.28
2.14
0.83
-0.47
-1.69
-2.84
-4.01
-5.30
-6.73
-8.26
-9.74
-11.01
-11.96
-12.54
-12.87
-13.16
-13.67
-14.59
-15.91
-17.40
-18.65
-19.20
-18.67
-16.94
-14.13
-10.55
-6.61
-2.74
0.69
3.41
5.24
6.17
6.33
5.98
5.41
4.90
4.58
4.49
4.53
4.60
4.63
4.57
4.42
4.21
3.97
3.81
3.79
3.97
4.38
4.99
5.68
6.26
6.55
6.37
5.60
4.29
2.57
0.71
-1.05
-2.52
-3.62
-4.42
-5.09
-5.75
-6.50
-7.33
-8.23
-9.19
-10.27
-11.55
-13.12
-14.95
-16.87
-18.55
-19.60
-19.65
-18.51
-16.15
-12.78
-8.80
-4.68
-0.93
2.00
3.90
4.75
4.76
4.26
3.57
2.93
2.44
2.09
1.85
1.70
1.69
1.88
2.29
2.88
3.54
4.06
4.30
4.21
3.84
3.35
2.88
2.50
2.15
1.69
1.03
0.16
-0.76
-1.63
-2.36
-3.04
-3.81
-4.79
-5.92
-7.08
-8.08
-8.85
-9.45
-10.04
-10.77
-11.79
-13.13
-14.81
-16.79
-18.88
-20.73
-21.85
-21.76
-20.19
-17.24
-13.33
-9.05
-4.94
-1.35
1.58
3.85
5.52
6.64
7.31
7.67
7.87
8.08
8.36
8.69
9.01
9.25
9.36
9.35
9.22
8.99
8.74
8.53
8.49
8.64
8.95
9.22
9.30
8.99
8.27
7.18
5.87
4.57
3.40
2.44
1.64
0.88
-0.02
-1.21
-2.72
-4.49
-6.34
-8.10
-9.62
-10.86
-11.91
-12.95
-14.18
-15.71
-17.50
-19.22
-20.40
-20.50
-19.16
-16.35
-12.38
-7.83
-3.37
0.47
3.41
5.42
6.68
7.41
7.82
8.04
8.08
7.95
7.66
7.30
7.00
6.92
7.14
7.65
8.32
9.05
9.74
10.37
10.95
11.47
11.82
11.85
11.46
10.63
9.43
8.05
6.62
5.21
3.85
2.53
1.30
0.23
-0.58
-1.09
-1.31
-1.42
-1.67
-2.33
-3.61
-5.52
-7.81
-10.02
-11.59
-11.99
-10.95
-8.48
-4.91
-0.73
3.50
7.29
10.29
12.30
13.25
13.19
12.31
10.82
9.01
7.21
5.68
4.62
4.11
4.08
4.36
4.76
5.09
5.30
5.44
5.56
5.71
5.85
5.84
5.54
4.84
3.80
2.57
1.35
0.28
-0.63
-1.50
-2.49
-3.74
-5.32
-7.21
-9.35
-11.65
-13.97
-16.05
-17.62
-18.30
-17.80
-16.06
-13.26
-9.78
-6.09
-2.53
0.68
3.45
5.72
7.42
8.46
8.81
8.57
7.94
7.21
6.58
6.13
5.79
5.41
4.84
4.06
3.13
2.25
1.59
1.24
1.16
1.12
0.88
0.19
-1.03
-2.70
-4.59
-6.48
-8.19
-9.67
-11.02
-12.41
-14.04
-15.99
-18.21
-20.45
-22.33
-23.40
-23.25
-21.69
-18.76
-14.72
-10.01
-5.13
-0.53
3.42
6.52
8.64
9.78
10.01
9.47
8.40
7.16
6.07
5.39
5.23
5.47
5.88
6.24
6.41
6.44
6.49
6.65
6.88
6.95
6.54
5.45
3.68
1.44
-0.91
-3.02
-4.70
-5.91
-6.81
-7.60
-8.57
-10.00
-12.09
-14.87
-18.12
-21.32
-23.75
-24.71
-23.72
-20.77
-16.25
-10.84
-5.27
-0.12
4.32
7.90
10.65
12.56
13.66
13.99
13.69
12.94
12.01
11.13
10.42
9.90
9.51
9.20
8.96
8.85
8.94
9.27
9.81
10.38
10.84
10.98
10.68
9.93
8.72
7.15
5.34
3.40
1.45
-0.43
-2.21
-3.91
-5.54
-7.15
-8.75
-10.42
-12.28
-14.43
-16.89
-19.47
-21.72
-23.03
-22.81
-20.67
-16.64
-11.15
-4.89
1.36
6.95
11.53
14.95
17.28
18.69
19.32
19.36
18.97
18.31
17.60
17.01
16.65
16.56
16.72
17.03
17.43
17.91
18.49
19.24
20.17
21.22
22.25
23.07
23.50
23.42
22.82
21.81
20.62
19.48
18.59
18.04
17.77
17.62
17.42
17.11
16.70
16.37
16.27
16.51
17.11
17.97
19.07
20.25
21.33
22.05
22.25
21.95
21.57
21.79
23.24
26.09
29.82
33.28
35.09
34.18
30.13
23.24
14.27
4.11
-6.46
-16.83
-26.51
-34.97
-41.77
-46.60
-49.43
-50.58
-50.56
-49.95
-49.18
-48.42
-47.70
-46.91
-45.97
-44.90
-43.75
-42.60
-41.44
-40.18
-38.71
-36.95
-34.92
-32.76
-30.64
-28.73
-27.10
-25.68
-24.33
-22.88
-21.25
-19.49
-17.82
-16.51
-15.81
-15.70
-15.94
-15.96
-15.18
-13.10
-9.51
-4.60
1.18
7.24
13.06
18.28
22.68
26.15
28.58
29.82
29.74
28.41
26.10
23.34
20.76
18.86
17.82
17.50
17.47
17.36
16.98
16.43
16.00
15.93
16.21
16.58
16.66
16.13
14.92
13.23
11.33
9.53
7.96
6.60
5.34
4.00
2.46
0.63
-1.53
-4.02
-6.76
-9.57
-12.17
-14.19
-15.20
-14.89
-13.11
-10.00
-5.94
-1.50
2.72
6.30
9.01
10.82
11.78
11.98
11.49
10.43
9.03
7.57
6.40
5.74
5.59
5.83
6.19
6.43
6.45
6.31
6.12
6.04
6.06
6.07
5.87
5.25
4.14
2.63
0.92
-0.78
-2.32
-3.76
-5.23
-6.90
-8.95
-11.39
-14.17
-17.09
-19.86
-22.06
-23.24
-23.03
-21.20
-17.81
-13.17
-7.81
-2.39
2.50
6.39
9.09
10.58
11.05
10.75
9.98
8.98
7.94
7.02
6.27
5.72
5.34
5.06
4.77
4.46
4.14
3.91
3.89
4.11
4.47
4.75
4.66
3.96
2.60
0.68
-1.52
-3.72
-5.73
-7.50
-9.15
-10.86
-12.82
-15.14
-17.80
-20.56
-22.97
-24.51
-24.63
-23.07
-19.91
-15.56
-10.66
-5.85
-1.57
1.98
4.82
7.03
8.66
9.75
10.30
10.37
10.07
9.51
8.79
8.01
7.19
6.40
5.72
5.21
4.90
4.74
4.62
4.45
4.20
3.90
3.61
3.38
3.15
2.80
2.17
1.13
-0.29
-2.05
-3.99
-5.94
-7.83
-9.59
-11.20
-12.69
-14.15
-15.70
-17.50
-19.63
-21.94
-24.07
-25.46
-25.55
-23.97
-20.69
-16.00
-10.48
-4.74
0.67
5.37
9.14
11.89
13.62
14.43
14.49
14.07
13.51
13.05
12.87
13.03
13.45
14.02
14.66
15.26
15.78
16.15
16.31
16.26
16.01
15.62
15.11
14.49
13.73
12.79
11.71
10.57
9.50
8.56
7.68
6.70
5.42
3.73
1.72
-0.36
-2.19
-3.54
-4.40
-4.99
-5.64
-6.70
-8.39
-10.75
-13.65
-16.79
-19.73
-21.92
-22.77
-21.84
-18.95
-14.34
-8.63
-2.64
2.87
7.37
10.72
13.02
14.49
15.31
15.55
15.24
14.43
13.26
11.98
10.85
10.08
9.73
9.76
10.02
10.37
10.76
11.19
11.68
12.24
12.77
13.14
13.23
12.91
12.16
11.06
9.71
8.26
6.85
5.57
4.50
3.60
2.79
1.95
0.95
-0.27
-1.69
-3.21
-4.71
-6.03
-7.06
-7.74
-8.12
-8.37
-8.78
-9.67
-11.26
-13.50
-16.01
-18.15
-19.20
-18.61
-16.21
-12.25
-7.27
-1.96
3.08
7.45
10.87
13.24
14.54
14.81
14.21
12.95
11.34
9.72
8.40
7.58
7.35
7.64
8.22
8.88
9.40
9.67
9.72
9.65
9.53
9.37
9.10
8.64
7.94
7.04
6.03
5.03
4.06
3.12
2.13
1.04
-0.17
-1.45
-2.74
-3.97
-5.11
-6.22
-7.35
-8.63
-10.14
-11.90
-13.89
-15.97
-17.84
-19.16
-19.54
-18.66
-16.46
-13.08
-8.91
-4.51
-0.43
2.89
5.19
6.48
6.91
6.68
6.03
5.11
4.03
2.89
1.75
0.77
0.11
-0.10
0.17
0.84
1.71
2.54
3.14
3.40
3.32
2.94
2.35
1.61
0.82
0.05
-0.62
-1.19
-1.71
-2.27
-3.04
-4.09
-5.46
-7.05
-8.71
-10.26
-11.57
-12.60
-13.39
-14.08
-14.86
-15.87
-17.25
-18.94
-20.77
-22.38
-23.32
-23.14
-21.55
-18.52
-14.31
-9.39
-4.33
0.38
4.36
7.45
9.63
10.96
11.60
11.68
11.34
10.75
10.01
9.28
8.69
8.39
8.44
8.80
9.29
9.67
9.75
9.46
8.90
8.26
7.72
7.35
7.10
6.82
6.39
5.70
4.72
3.49
2.09
0.66
-0.63
-1.65
-2.36
-2.83
-3.27
-3.87
-4.76
-5.91
-7.16
-8.30
-9.21
-9.88
-10.46
-11.17
-12.20
-13.63
-15.40
-17.30
-18.99
-20.05
-20.11
-18.95
-16.54
-13.03
-8.78
-4.25
0.10
3.84
6.68
8.55
9.53
9.85
9.80
9.61
9.44
9.35
9.37
9.53
9.89
10.44
11.15
11.85
12.41
12.69
12.66
12.39
12.02
11.68
11.42
11.29
11.19
11.01
10.66
10.02
9.08
7.87
6.54
5.30
4.32
3.68
3.31
3.00
2.46
1.51
0.14
-1.53
-3.26
-4.87
-6.29
-7.54
-8.76
-10.03
-11.41
-12.94
-14.63
-16.48
-18.39
-20.11
-21.22
-21.29
-20.00
-17.27
-13.37
-8.81
-4.20
-0.12
3.02
5.07
6.07
6.23
5.82
5.13
4.42
3.86
3.57
3.58
3.86
4.33
4.93
5.54
6.14
6.70
7.20
7.66
8.12
8.61
9.14
9.67
10.07
10.15
9.80
9.02
8.01
7.02
6.28
5.86
5.63
5.34
4.79
3.91
2.78
1.58
0.45
-0.57
-1.46
-2.27
-3.00
-3.64
-4.24
-4.91
-5.79
-6.97
-8.35
-9.61
-10.35
-10.14
-8.73
-6.17
-2.76
0.99
4.60
7.65
9.97
11.49
12.27
12.32
11.65
10.32
8.43
6.25
4.13
2.42
1.33
0.85
0.81
0.95
1.09
1.14
1.18
1.25
1.40
1.59
1.71
1.67
1.39
0.85
0.07
-0.85
-1.84
-2.83
-3.81
-4.82
-5.90
-7.07
-8.30
-9.57
-10.87
-12.28
-13.90
-15.76
-17.70
-19.35
-20.23
-19.89
-18.10
-14.96
-10.86
-6.35
-2.05
1.51
4.03
5.41
5.84
5.64
5.14
4.63
4.18
3.77
3.25
2.59
1.79
0.99
0.33
-0.11
-0.35
-0.45
-0.47
-0.42
-0.26
0.00
0.35
0.63
0.61
0.11
-1.00
-2.62
-4.53
-6.42
-8.03
-9.23
-10.07
-10.78
-11.66
-12.98
-14.87
-17.26
-19.82
-22.08
-23.51
-23.73
-22.57
-20.14
-16.76
-12.87
-8.90
-5.20
-1.99
0.64
2.68
4.19
5.19
5.72
5.82
5.50
4.86
4.05
3.23
2.58
2.24
2.30
2.74
3.52
4.46
5.39
6.10
6.46
6.46
6.14
5.62
4.96
4.17
3.22
2.11
0.82
-0.55
-1.92
-3.23
-4.46
-5.63
-6.80
-8.06
-9.43
-10.98
-12.72
-14.67
-16.75
-18.78
-20.43
-21.29
-20.93
-19.06
-15.64
-10.92
-5.46
0.10
5.15
9.28
12.34
14.36
15.49
15.89
15.74
15.17
14.37
13.57
12.98
12.78
13.02
13.57
14.17
14.57
14.60
14.25
13.69
13.13
12.74
12.53
12.36
12.05
11.40
10.33
8.87
7.14
5.29
3.50
1.85
0.34
-1.10
-2.54
-4.00
-5.39
-6.53
-7.31
-7.75
-8.09
-8.68
-9.85
-11.75
-14.24
-16.96
-19.44
-21.21
-21.91
-21.32
-19.33
-16.03
-11.65
-6.63
-1.56
2.98
6.55
9.01
10.48
11.30
11.81
12.25
12.68
13.07
13.35
13.48
13.50
13.48
13.46
13.50
13.64
13.90
14.27
14.75
15.28
15.75
16.04
15.99
15.52
14.58
13.19
11.48
9.64
7.91
6.46
5.37
4.51
3.71
2.75
1.49
-0.10
-1.92
-3.80
-5.51
-6.93
-7.98
-8.80
-9.63
-10.78
-12.48
-14.75
-17.31
-19.67
-21.18
-21.30
-19.72
-16.49
-12.02
-6.92
-1.85
2.64
6.26
8.92
10.71
11.76
12.19
12.12
11.65
10.96
10.26
9.75
9.53
9.62
9.89
10.19
10.42
10.55
10.65
10.82
11.05
11.28
11.34
11.05
10.37
9.39
8.30
7.30
6.47
5.68
4.77
3.59
2.14
0.61
-0.78
-1.87
-2.74
-3.63
-4.81
-6.46
-8.56
-10.89
-13.13
-14.97
-16.14
-16.44
-15.71
-13.87
-10.94
-7.14
-2.86
1.39
5.09
7.86
9.53
10.13
9.87
8.97
7.67
6.20
4.74
3.48
2.58
2.16
2.23
2.72
3.41
4.08
4.55
4.71
4.56
4.16
3.54
2.74
1.75
0.58
-0.69
-1.96
-3.10
-4.05
-4.83
-5.59
-6.50
-7.77
-9.52
-11.71
-14.18
-16.56
-18.39
-19.20
-18.67
-16.69
-13.52
-9.60
-5.46
-1.52
1.97
4.94
7.37
9.21
10.32
10.57
9.96
8.68
7.08
5.59
4.52
3.94
3.75
3.71
3.63
3.41
3.09
2.77
2.53
2.39
2.26
2.03
1.57
0.81
-0.28
-1.62
-3.08
-4.53
-5.92
-7.22
-8.56
-10.06
-11.82
-13.83
-15.98
-18.02
-19.64
-20.46
-20.14
-18.49
-15.50
-11.47
-6.89
-2.37
1.54
4.55
6.66
8.04
8.90
9.40
9.53
9.28
8.69
7.92
7.21
6.79
6.71
6.84
6.97
6.89
6.54
6.02
5.50
5.08
4.75
4.35
3.69
2.66
1.25
-0.38
-2.04
-3.53
-4.68
-5.45
-5.89
-6.18
-6.58
-7.44
-9.00
-11.33
-14.19
-17.01
-19.13
-19.89
-18.93
-16.31
-12.38
-7.74
-2.99
1.39
5.10
7.97
10.02
11.27
11.86
11.94
11.70
11.26
10.71
10.11
9.51
9.05
8.82
8.90
9.29
9.87
10.47
10.92
11.08
10.89
10.39
9.62
8.65
7.54
6.31
5.00
3.62
2.20
0.79
-0.56
-1.86
-3.09
-4.32
-5.55
-6.77
-7.96
-9.07
-10.11
-11.19
-12.45
-13.98
-15.73
-17.44
-18.66
-18.92
-17.88
-15.44
-11.78
-7.31
-2.60
1.79
5.41
7.98
9.45
10.04
10.10
10.01
10.06
10.31
10.64
10.88
10.91
10.77
10.64
10.69
10.98
11.43
11.80
11.90
11.66
11.15
10.57
10.09
9.78
9.57
9.31
8.83
8.09
7.15
6.16
5.24
4.46
3.75
3.02
2.17
1.14
-0.03
-1.25
-2.41
-3.43
-4.30
-5.08
-5.79
-6.47
-7.11
-7.74
-8.46
-9.44
-10.81
-12.53
-14.34
-15.70
-16.12
-15.19
-12.85
-9.36
-5.24
-1.04
2.75
5.82
8.00
9.25
9.71
9.55
9.02
8.36
7.70
7.11
6.63
6.27
6.07
6.08
6.23
6.41
6.50
6.41
6.18
5.92
5.81
5.90
6.11
6.22
6.02
5.37
4.31
3.04
1.84
0.97
0.56
0.55
0.74
0.84
0.60
-0.08
-1.08
-2.14
-2.95
-3.35
-3.39
-3.29
-3.39
-3.95
-5.03
-6.48
-7.93
-8.98
-9.28
-8.63
-7.01
-4.64
-1.84
1.00
3.47
5.27
6.30
6.57
6.30
5.72
5.02
4.36
3.74
3.16
2.61
2.12
1.74
1.47
1.29
1.11
0.89
0.60
0.32
0.13
0.09
0.20
0.38
0.52
0.50
0.31
-0.01
-0.39
-0.76
-1.19
-1.74
-2.48
-3.44
-4.55
-5.71
-6.77
-7.59
-8.10
-8.30
-8.26
-8.20
-8.37
-8.94
-9.91
-11.02
-11.82
-11.85
-10.81
-8.72
-5.94
-2.99
-0.38
1.55
2.70
3.16
3.12
2.77
2.27
1.70
1.11
0.51
-0.03
-0.43
-0.56
-0.37
0.11
0.70
1.18
1.41
1.35
1.16
1.01
1.01
1.11
1.12
0.82
0.09
-0.97
-2.16
-3.18
-3.84
-4.12
-4.08
-3.89
-3.68
-3.54
-3.52
-3.66
-3.97
-4.48
-5.19
-6.05
-7.04
-8.15
-9.38
-10.72
-12.07
-13.18
-13.71
-13.35
-11.94
-9.60
-6.61
-3.43
-0.48
1.97
3.73
4.77
5.14
4.98
4.52
4.00
3.56
3.27
3.13
3.04
2.95
2.89
2.89
2.96
3.09
3.22
3.33
3.46
3.64
3.87
4.07
4.08
3.81
3.22
2.40
1.50
0.61
-0.26
-1.14
-2.05
-2.93
-3.70
-4.28
-4.66
-4.93
-5.22
-5.60
-6.03
-6.44
-6.79
-7.18
-7.75
-8.61
-9.70
-10.74
-11.29
-10.98
-9.63
-7.37
-4.57
-1.66
1.05
3.37
5.31
6.86
7.98
8.56
8.51
7.88
6.87
5.84
5.15
5.02
5.45
6.22
7.04
7.65
7.97
8.11
8.24
8.52
8.98
9.53
10.00
10.27
10.31
10.15
9.87
9.51
9.09
8.59
7.95
7.15
6.20
5.14
4.06
3.08
2.23
1.56
0.99
0.41
-0.30
-1.20
-2.31
-3.57
-4.88
-6.07
-6.88
-7.05
-6.35
-4.74
-2.41
0.20
2.61
4.39
5.33
5.55
5.26
4.74
4.17
3.54
2.79
1.91
0.97
0.16
-0.29
-0.27
0.16
0.77
1.25
1.45
1.33
1.06
0.86
0.92
1.23
1.60
1.76
1.45
0.61
-0.70
-2.20
-3.62
-4.76
-5.55
-6.03
-6.30
-6.51
-6.76
-7.16
-7.80
-8.73
-9.91
-11.13
-12.06
-12.31
-11.55
-9.69
-6.91
-3.63
-0.41
2.28
4.16
5.19
5.51
5.34
4.86
4.15
