2935
3560
3942
4500
4910
5158
5429
5714
5982
6195
6369
6538
6698
6848
7008
7172
7279
7334
7425
7540
7651
7767
7846
7862
7892
7973
8052
8135
8193
8156
8135
8198
8263
8358
8439
8332
8209
8260
8316
8302
8316
8302
8228
8212
8260
8281
8221
8128
8105
8112
8110
8105
8040
7962
8003
8031
7902
7804
7772
7698
7647
7628
7612
7577
7496
7429
7404
7360
7327
7293
7188
7110
7105
7043
6945
6897
6813
6723
6681
6644
6642
6723
6899
7110
7019
6515
6170
6165
6026
5852
5862
5834
5762
5711
5626
5558
5526
5484
5440
5378
5292
5241
5211
5174
5158
5107
4998
4956
4961
4906
4841
4790
4727
4679
4649
4614
4570
4493
4412
4364
4345
4301
4188
4081
4012
3956
3908
3850
3792
3739
3683
3646
3618
3586
3540
3491
3459
3417
3352
3315
3287
3232
3185
3160
3134
3104
3060
3014
2977
2945
2919
2891
2847
2801
2764
2738
2743
2711
2590
2516
2519
2498
2465
2444
2410
2377
2356
2336
2317
2285
2241
2213
2194
2171
2146
2113
2088
2069
2053
2049
2039
1998
1965
1949
1921
1893
1877
1845
1789
1748
1738
1729
1704
1680
1701
1838
2116
2361
2220
1710
1400
1460
1472
1386
1386
1393
1359
1347
1347
1333
1317
1303
1291
1280
1266
1257
1243
1231
1229
1217
1201
1194
1190
1185
1185
1185
1178
1143
1078
1051
1060
1041
1014
986
951
930
919
896
870
835
784
768
766
743
726
713
699
701
706
699
694
687
673
652
632
632
629
620
618
622
620
618
615
606
597
590
578
574
571
567
569
576
578
574
564
560
564
567
569
564
555
551
555
555
555
551
537
532
544
560
569
557
537
530
534
525
509
472
419
402
421
426
414
412
442
578
863
1132
1067
615
266
321
407
347
335
358
342
342
356
333
310
310
310
312
324
335
338
333
333
328
326
342
354
344
349
370
391
402
402
388
382
384
377
354
328
298
277
273
268
256
245
233
233
238
245
250
247
229
217
219
210
182
162
157
159
164
166
169
162
150
150
159
164
145
106
90
106
115
115
122
122
122
127
138
136
113
92
104
118
120
125
134
141
143
143
145
152
152
145
141
138
143
155
152
143
143
150
159
192
307
574
840
733
259
-39
41
104
43
57
99
85
81
101
104
99
101
94
92
104
113
120
129
136
141
155
166
175
189
201
210
226
236
238
231
196
162
162
162
138
125
106
74
62
71
71
53
16
-9
-16
-18
-11
2
4
13
25
30
34
43
48
57
67
67
64
57
50
48
41
27
30
32
25
34
43
43
43
46
48
57
62
50
37
37
43
53
60
64
69
85
106
115
113
113
113
108
104
106
111
113
113
115
120
125
138
194
375
676
870
641
138
-64
57
69
-6
25
60
27
-6
-9
11
27
30
32
37
46
62
76
83
87
92
104
122
138
150
157
159
175
194
203
206
194
178
175
173
150
118
94
85
85
90
92
94
87
83
94
108
115
118
115
118
127
136
138
141
129
113
113
122
122
115
104
94
74
55
64
74
55
39
46
50
30
-6
-50
-64
-50
-43
-48
-74
-108
-104
-78
-69
-53
-37
-39
-39
-30
-18
-16
-27
-39
-30
-18
-11
-6
-6
-11
-4
34
166
451
729
639
162
-157
-74
-2
-83
-83
-37
-43
-46
-30
-34
-39
-25
-16
-11
-9
-11
-11
-2
9
13
13
23
34
43
39
32
37
37
37
53
69
71
62
53
39
34
37
34
25
25
30
34
43
30
-2
-4
16
25
37
43
41
53
67
69
78
87
90
92
90
76
78
85
85
87
87
78
76
78
81
83
83
90
97
97
94
104
108
108
108
101
92
94
101
97
87
78
83
87
78
60
27
-2
2
16
18
20
23
34
113
314
611
791
567
92
-85
27
43
-6
20
43
39
48
60
43
11
2
27
37
30
37
53
64
67
60
64
78
90
108
131
145
155
164
164
164
173
175
159
141
131
127
120
106
94
92
90
90
94
101
106
99
94
108
129
127
113
90
60
64
85
87
69
32
20
41
46
37
46
46
39
55
71
69
69
76
71
57
60
64
48
43
62
76
90
97
55
2
2
11
-4
-13
-27
-39
-34
-32
-25
-23
-32
-23
71
289
576
706
414
-39
-138
-18
-23
-55
-27
-18
-23
-4
16
23
18
20
32
46
48
41
37
37
18
23
57
67
57
78
113
134
145
150
148
152
159
155
143
122
104
94
87
76
76
71
60
60
76
83
81
87
87
74
74
90
90
83
85
97
101
101
76
37
39
60
57
53
64
64
55
57
74
81
81
83
85
87
92
92
83
81
97
108
94
74
60
57
53
32
6
2
9
9
11
6
0
6
76
294
627
784
460
-60
-180
-34
-53
-108
-67
-50
-64
-48
-37
-39
-25
-18
-25
-32
-32
-18
-9
-4
9
25
34
46
67
78
94
118
131
138
141
143
145
143
120
92
53
9
-4
0
-4
-11
-32
-60
-50
-32
-41
-53
-53
-41
-27
-16
-23
-46
-55
-37
-20
-16
-13
-9
-9
-4
6
11
9
9
9
13
23
25
23
20
23
25
30
34
30
23
18
11
2
2
2
-4
-2
9
9
0
-4
-13
-20
-18
-16
-16
-18
-20
-13
-6
-11
-16
16
155
456
761
687
173
-213
-162
-85
-143
-136
-108
-136
-136
-99
-83
-78
-64
-69
-87
-74
-46
-32
-25
-18
-6
16
34
55
74
83
94
120
141
157
164
157
152
155
150
136
118
90
64
55
60
67
67
60
64
81
90
97
99
94
97
113
125
129
125
122
129
141
148
152
148
141
143
152
159
159
155
148
148
152
145
134
127
125
129
138
141
125
81
37
32
46
43
30
25
27
30
39
48
62
71
81
81
83
87
90
76
57
48
48
41
32
20
6
2
16
57
196
495
784
706
217
-125
-48
20
-60
-50
0
-27
-67
-67
-50
-37
-23
-16
-13
-4
4
18
34
41
41
53
69
71
71
85
106
120
129
143
155
152
141
115
83
69
57
9
-34
-25
-13
-20
-13
0
4
13
23
32
43
48
53
64
71
76
85
83
71
81
92
87
87
90
92
104
108
106
104
104
113
120
120
120
125
125
125
120
106
104
104
101
108
113
113
104
97
104
120
125
113
104
92
78
74
60
39
30
25
27
34
18
-11
-16
-6
16
118
356
652
713
331
-118
-159
-34
-62
-99
-67
-48
-43
-25
-16
-23
-23
-11
2
11
16
18
27
43
57
67
78
83
99
127
148
155
157
157
169
182
182
171
152
138
131
125
113
101
81
76
85
76
62
64
64
57
76
97
99
92
90
97
108
115
118
111
81
69
85
94
94
87
78
85
94
81
74
74
62
55
69
78
74
67
55
50
60
62
53
25
-11
-11
4
-9
-32
-60
-106
-115
-94
-94
-94
-87
-85
-81
-71
-60
-23
83
324
618
662
280
-136
-159
-50
-92
-125
-87
-83
-99
-83
-67
-64
-55
-48
-55
-53
-39
-30
-23
-18
-30
-50
-48
-25
-9
0
9
18
30
41
46
41
32
27
23
13
-9
-34
-43
-46
-46
-39
-34
-39
-34
-23
-11
0
6
2
6
20
32
41
32
4
4
25
30
32
37
34
27
23
23
30
34
34
32
23
20
32
37
37
43
50
50
41
34
30
23
18
20
25
30
37
25
4
6
18
16
18
20
16
20
30
32
39
46
46
57
120
326
671
858
562
32
-113
32
27
-27
13
32
13
27
48
53
55
50
23
4
23
39
39
48
60
69
83
99
113
122
131
145
148
148
155
157
152
155
155
141
122
106
94
90
92
90
85
83
85
87
74
55
57
67
67
76
90
94
90
87
92
97
104
101
64
4
-20
0
11
9
4
2
9
23
30
34
30
27
37
50
53
41
25
11
4
11
20
11
-30
-60
-41
-9
6
11
2
-9
-11
-13
-13
-16
-20
-16
0
11
20
23
25
67
229
530
810
724
224
-111
-9
64
-37
-57
-18
-23
-18
9
20
16
20
30
41
48
41
30
34
48
62
74
87
90
92
106
127
143
157
159
155
159
166
162
152
136
115
101
99
99
92
83
81
87
97
104
106
92
78
76
85
87
55
18
18
37
41
48
53
50
50
57
67
69
60
46
39
48
53
53
37
13
13
25
32
34
39
39
41
34
11
-9
-18
-30
-32
-23
-6
6
16
9
4
13
18
9
-2
2
6
13
20
20
18
32
69
180
442
738
740
326
-67
-50
55
-2
-32
-9
-11
-6
9
6
11
30
32
34
46
48
53
64
69
78
69
32
32
67
78
74
57
30
13
9
11
23
20
6
4
-4
-30
-53
-57
-53
-48
-41
-37
-39
-41
-27
-11
-6
-2
4
6
9
18
25
30
23
20
30
39
37
25
18
16
23
27
20
6
0
-11
-27
-32
-27
-27
-32
-30
-25
-25
-23
-20
-23
-23
-25
-39
-55
-83
-127
-150
-129
-111
-115
-115
-108
-99
-92
-85
-32
143
423
604
407
-46
-238
-134
-106
-143
-94
-60
-74
-71
-53
-39
-23
-4
6
9
6
23
46
55
64
76
83
97
120
143
157
159
173
196
203
203
203
189
164
157
155
145
127
104
94
104
113
108
104
106
111
118
129
143
143
131
136
150
157
159
155
148
155
162
148
120
97
92
97
90
83
69
27
-11
-2
16
13
9
9
6
13
30
53
69
64
55
60
64
53
32
11
0
2
16
18
11
4
20
101
324
655
812
493
-25
-143
4
-6
-64
-25
-9
-20
0
13
11
11
16
23
34
25
-4
-9
9
18
32
48
53
64
83
99
115
127
115
99
92
81
71
69
53
37
25
13
2
-30
-67
-64
-48
-46
-43
-39
-34
-25
-20
-13
-2
0
0
6
11
13
13
11
13
18
13
11
6
-4
-6
0
-4
-4
2
0
2
11
13
18
18
6
6
16
18
16
20
37
64
78
71
67
69
71
74
69
48
39
32
0
-37
-48
-48
-32
48
277
618
777
453
-64
-173
-23
-37
-85
-48
-64
-115
-99
-62
-60
-57
-48
-39
-25
-6
4
11
18
30
46
67
81
85
85
97
122
143
155
157
152
155
159
157
145
127
108
101
104
101
99
94
92
101
113
118
118
118
118
125
136
143
143
138
134
120
92
83
94
90
83
97
108
111
113
106
104
113
122
129
131
122
113
125
138
138
138
134
127
125
120
120
108
67
48
71
97
106
81
43
41
60
62
43
-2
-48
-53
-43
-50
-50
-50
-57
-20
122
405
696
678
236
-152
-111
-9
-76
-92
-39
-39
-50
-23
-4
-11
-18
-27
-43
-53
-48
-41
-34
-16
9
16
18
32
50
64
83
104
113
113
118
125
129
127
108
90
83
76
64
62
55
48
48
55
57
27
-37
-74
-53
-34
-25
-27
-62
-76
-53
-37
-27
-18
-18
-11
-2
2
4
11
16
18
30
39
43
46
53
55
57
64
71
74
69
55
48
55
37
6
18
30
13
18
32
25
18
25
23
25
37
39
30
16
25
78
229
500
710
544
76
-162
-67
-20
-67
-50
-37
-60
-57
-43
-39
-30
-23
-30
-48
-64
-53
-32
-25
-27
-48
-60
-37
-4
6
18
37
57
78
87
87
87
90
87
81
67
50
34
20
6
0
4
11
6
-9
-20
-4
13
16
16
25
39
48
55
57
55
55
64
74
74
71
69
71
78
85
87
85
83
85
85
87
81
48
11
6
25
34
32
13
0
16
48
55
46
39
34
34
39
37
27
-4
-39
-32
-25
-39
-50
-34
64
342
678
708
266
-192
-201
-85
-138
-157
-115
-129
-148
-143
-155
-152
-136
-143
-143
-122
-113
-108
-104
-104
-97
-76
-62
-50
-41
-34
-18
6
25
37
39
34
41
48
27
2
-13
-25
-30
-23
-16
-11
-11
-11
0
13
25
32
34
37
50
64
74
81
83
81
87
101
108
111
106
104
108
118
122
127
120
104
104
118
118
92
60
57
64
37
9
13
23
18
25
39
41
32
32
41
57
83
87
53
23
23
23
6
-11
-18
-20
-18
-20
-30
-30
-25
-4
81
314
655
805
474
-37
-138
9
-11
-62
-16
0
-13
2
25
20
23
39
46
50
64
69
69
81
92
101
115
122
122
131
145
157
171
178
180
187
185
159
104
48
32
30
16
4
-13
-48
-46
-20
-18
-27
-46
-69
-60
-37
-32
-27
-13
-6
0
2
-6
-6
4
16
25
30
30
32
41
46
50
57
60
64
55
43
43
46
41
39
43
48
48
48
48
46
41
48
60
46
27
16
-2
-20
-18
-2
4
-6
-20
-18
-13
-18
-27
-55
-87
-78
-60
-64
-81
-118
-131
-78
60
326
627
636
222
-169
-145
-34
-92
-113
-62
-60
-74
-55
-46
-50
-27
-2
6
13
13
18
41
62
78
87
87
97
125
148
164
175
182
187
192
196
206
201
182
166
164
152
143
129
108
94
106
115
120
118
108
115
134
138
138
145
136
108
94
106
118
108
97
108
122
122
108
78
48
53
64
57
50
48
41
37
34
39
46
34
30
48
62
60
60
55
43
39
39
39
50
57
48
43
48
53
43
27
25
34
48
50
46
43
50
74
152
351
636
773
497
32
-87
41
39
-6
20
37
30
46
57
50
46
34
13
2
-20
-32
-18
0
11
20
27
37
55
74
87
74
46
48
53
46
48
48
39
30
16
2
-2
-9
-18
-20
-20
-13
-9
-13
-11
0
4
9
16
16
18
25
25
25
25
20
20
20
16
4
-20
-43
-39
-34
-46
-48
-43
-43
-41
-34
-32
-32
-30
-27
-20
-16
-32
-60
-85
-87
-74
-67
-64
-57
-53
-50
-39
-25
-9
6
11
2
-4
-2
2
-2
-9
0
16
23
20
4
-25
-18
48
215
527
803
671
155
-138
-23
39
-39
-23
23
18
23
37
32
37
57
71
69
55
46
57
76
87
97
101
108
125
141
157
171
178
182
189
201
206
201
187
150
120
113
108
92
78
71
74
83
87
92
85
78
76
76
83
87
81
76
76
76
83
83
74
71
81
85
92
92
81
76
85
92
90
60
6
-20
-13
-9
-9
-32
-69
-71
-46
-48
-60
-67
-69
-60
-43
-34
-32
-62
-97
-85
-62
-55
-41
-20
-9
0
9
18
25
18
-4
-30
-25
-6
2
2
4
13
34
94
277
592
810
604
94
-127
-2
23
-46
-11
25
16
20
30
25
41
60
64
67
69
76
83
99
111
111
111
122
138
155
157
134
113
129
148
136
108
76
53
50
46
34
13
-23
-43
-37
-27
-18
-9
-6
-2
6
9
13
16
13
13
11
-9
-16
-6
-4
2
11
18
27
32
16
2
-2
-11
-16
-13
-11
-2
6
9
9
11
18
27
32
37
41
39
39
53
62
67
64
62
76
83
78
85
101
113
127
125
101
83
60
30
25
37
34
41
50
48
53
69
125
282
553
775
662
226
-48
18
76
30
43
67
30
4
23
37
46
57
57
62
67
60
69
92
92
85
97
120
134
141
157
166
166
180
199
201
194
185
175
173
169
150
127
111
101
101
101
97
90
87
97
99
78
55
37
9
-6
2
16
16
-9
-46
-43
-20
-16
-23
-48
-92
-101
-85
-87
-101
-111
-111
-94
-81
-76
-78
-97
-108
-90
-71
-67
-62
-64
-62
-39
-16
-4
-4
-11
-9
2
9
6
6
4
13
30
32
37
55
115
294
606
814
599
108
-99
20
57
9
32
50
30
39
53
41
41
50
48
53
67
76
87
87
87
101
118
129
143
150
152
164
182
192
182
145
118
127
131
120
104
74
34
9
9
18
11
-2
-2
6
18
30
37
37
43
53
60
55
48
48
50
50
55
62
57
50
50
57
62
62
57
55
46
39
37
25
9
9
0
-16
-13
-4
-11
-11
-4
2
4
4
9
25
43
50
48
46
48
53
46
39
41
43
46
50
53
53
62
97
231
523
803
715
217
-152
-81
13
-60
-64
-34
-87
-106
-67
-57
-62
-48
-37
-32
-18
-6
-2
4
16
30
41
50
53
32
13
34
62
67
74
81
78
71
53
32
23
13
2
0
-2
-6
-9
-9
-6
2
9
11
13
13
16
27
34
30
27
27
32
37
32
18
9
6
6
4
2
-23
-57
-62
-53
-50
-48
-62
-104
-141
-138
-134
-150
-164
-164
-162
-155
-143
-141
-145
-145
-134
-113
-87
-67
-69
-78
-64
-43
-39
-43
-48
-41
-34
-39
-41
-32
-27
-2
104
340
655
773
430
-50
-113
37
11
-30
6
13
6
30
53
55
48
55
74
83
90
97
99
101
111
127
138
122
92
99
127
143
157
164
155
155
169
173
169
150
122
111
111
106
97
67
23
27
53
60
62
64
64
71
83
90
99
104
85
71
83
99
101
90
83
90
101
106
94
78
81
83
83
92
97
85
78
94
101
99
99
99
90
81
81
92
92
78
71
74
64
39
13
0
-23
-37
-16
0
-16
-16
20
101
282
557
706
460
11
-129
-13
-18
-99
-85
-55
-69
-64
-57
-83
-97
-71
-48
-48
-76
-106
-104
-87
-76
-55
-48
-43
-13
9
18
37
50
53
67
78
69
60
62
55
32
11
4
0
-9
-18
-16
-9
-4
-6
-16
-11
6
0
-23
-25
-16
-27
-57
-69
-53
-50
-62
-57
-41
-34
-37
-37
-34
-25
-11
2
11
13
18
20
30
46
57
57
62
69
69
62
53
34
13
9
23
32
27
16
13
25
67
210
500
757
650
166
-152
-74
-32
-131
-122
-67
-74
-76
-57
-53
-41
-23
-9
-6
-6
4
20
32
27
23
32
50
71
87
85
71
78
101
118
129
134
125
111
106
101
92
81
67
60
64
74
78
78
76
76
87
101
111
120
122
113
106
118
129
122
85
53
67
87
85
81
81
81
90
99
104
106
101
101
111
118
122
127
118
113
125
136
155
166
155
136
127
115
94
71
53
53
67
74
74
50
18
32
113
310
629
824
546
-11
-203
-53
-60
-169
-159
-122
-127
-113
-92
-97
-97
-78
-60
-48
-41
-43
-50
-37
-13
-2
6
18
27
48
71
90
101
108
115
125
131
131
120
99
83
76
69
57
20
-16
-11
6
13
6
-20
-39
-23
-18
-30
-20
-6
-4
0
13
27
39
34
13
4
23
34
32
37
48
48
50
62
67
67
74
81
83
90
92
94
99
104
106
111
106
104
125
138
129
127
131
127
108
92
87
90
87
90
97
92
90
111
189
412
740
875
532
11
-92
41
0
-60
-18
-37
-97
-85
-69
-92
-92
-74
-71
-62
-50
-46
-34
-25
-20
-20
-30
-27
-6
4
18
50
71
71
74
76
71
76
78
67
50
41
41
41
39
37
34
25
25
43
53
53
57
64
74
83
87
90
90
94
104
115
120
113
104
108
120
125
120
118
115
113
120
129
131
129
127
127
115
97
92
78
39
27
53
57
50
34
11
20
39
30
11
-18
-57
-57
-43
-60
-69
-69
-71
-60
-53
-48
-43
-48
-23
99
354
634
664
263
-175
-201
-87
-129
-162
-138
-143
-138
-113
-108
-120
-122
-118
-106
-94
-85
-85
-90
-81
-64
-55
-48
-39
-30
-20
-2
23
41
43
37
34
37
34
32
20
4
-2
-6
-6
-6
-18
-27
-13
6
9
-25
-74
-83
-55
-32
-18
-9
-6
0
13
27
39
43
43
41
48
64
64
48
39
48
62
71
76
76
76
85
97
104
106
106
108
113
120
125
125
127
138
157
164
152
136
129
129
120
113
115
115
111
106
94
83
85
118
213
449
750
812
416
-62
-108
27
-13
-53
-4
-4
-39
-43
-32
-25
-32
-60
-85
-71
-50
-46
-39
-41
-43
-23
-4
0
0
6
32
55
64
78
87
90
92
94
90
76
62
50
46
43
39
39
43
43
50
60
62
60
37
11
20
39
39
46
55
50
41
41
48
50
53
57
64
69
67
64
62
64
74
83
83
81
78
64
48
48
50
34
30
39
46
48
46
27
4
9
20
18
4
-2
9
20
9
-2
-11
-30
-37
-30
-27
-27
-25
-23
-18
-11
-4
27
129
379
703
773
375
-85
-104
25
-25
-50
4
4
-13
-6
-6
-9
9
20
13
11
30
46
55
60
64
69
87
106
120
131
138
145
157
152
136
131
129
122
122
118
104
90
71
60
64
64
53
39
37
46
57
67
78
81
71
74
85
94
97
71
34
37
57
62
67
71
57
57
71
69
53
46
43
46
57
64
69
69
50
39
55
67
62
55
46
37
34
30
18
11
13
16
16
18
16
11
23
41
55
41
6
-2
9
9
6
11
11
9
18
23
16
11
23
92
298
611
782
530
41
-118
13
23
-30
2
18
2
11
23
18
4
-23
-37
-20
-6
-4
-18
-46
-43
-11
0
4
20
30
37
57
78
81
78
83
83
78
81
74
53
39
34
23
6
-4
-6
-2
2
2
2
2
-4
-18
-16
-16
-20
-11
-9
-23
-39
-57
-62
-60
-71
-78
-69
-62
-67
-74
-76
-62
-53
-62
-78
-83
-78
-81
-87
-83
-71
-67
-67
-60
-48
-48
-62
-87
-90
-55
-30
-32
-37
-32
-32
-32
-25
-23
-23
-20
-9
4
13
20
30
87
280
581
761
532
57
-115
13
46
-2
20
37
25
25
18
9
20
27
30
46
43
34
39
50
57
74
97
111
113
118
141
162
175
187
192
185
187
192
189
180
150
125
122
125
115
108
99
92
104
115
120
122
115
104
111
125
129
118
83
55
67
71
57
53
48
41
50
60
62
62
55
53
62
69
74
67
50
41
39
25
0
-20
-30
-25
-27
-39
-37
-30
-37
-34
-18
-2
11
20
13
16
27
37
27
-16
-53
-39
-13
-11
-4
-2
-6
13
92
294
618
821
576
55
-129
18
27
-53
-23
9
-2
13
32
25
23
34
48
53
30
-2
0
20
34
46
53
57
69
85
106
125
131
136
145
155
157
152
131
97
67
41
30
25
13
4
11
18
27
32
32
37
48
55
67
71
67
60
53
55
64
64
60
60
64
67
69
67
64
67
69
69
53
30
20
16
6
9
16
11
9
11
11
16
20
20
23
30
27
25
13
-6
2
27
23
13
20
20
18
16
16
23
32
16
-13
-34
-25
25
173
467
752
671
182
-150
-57
20
-43
-32
6
-4
-4
16
27
32
32
37
43
53
64
71
76
83
90
99
111
122
125
115
120
143
159
164
166
164
157
157
155
138
120
99
87
85
83
81
81
74
69
78
90
92
87
83
87
99
108
106
78
30
4
-13
-43
-50
-64
-104
-106
-78
-74
-74
-69
-67
-60
-50
-48
-55
-76
-87
-76
-67
-60
-55
-62
-67
-55
-43
-34
-20
-11
-6
-6
-2
4
-13
-43
-39
-25
-25
-13
2
-9
-18
4
60
194
453
696
634
213
-113
-53
32
-32
-41
4
4
4
16
11
18
32
34
41
46
37
25
18
4
-2
9
16
20
41
69
78
53
30
41
62
67
64
55
46
34
25
23
11
-4
-6
0
2
2
4
11
13
20
25
18
11
16
23
27
39
48
43
41
43
43
48
53
48
46
37
23
23
27
20
16
18
23
27
30
25
23
25
30
39
43
37
6
-20
-23
-16
-41
-74
-76
-64
-64
-57
-53
-57
-53
-25
78
328
615
645
254
-185
-210
-78
-115
-145
-101
-94
-97
-74
-62
-60
-43
-43
-55
-55
-43
-34
-23
-13
-2
9
20
37
53
64
81
99
106
115
127
129
127
120
108
94
83
67
53
41
32
37
43
39
39
46
39
32
41
50
37
-2
-39
-41
-27
-25
-30
-25
-18
-13
-11
-9
-9
-11
-6
2
6
-2
-27
-62
-71
-67
-69
-71
-74
-74
-67
-64
-78
-97
-99
-87
-71
-53
-46
-67
-90
-94
-99
-113
-122
-131
-141
-136
-127
-122
-122
-122
-87
53
349
645
597
111
-259
-173
-67
-134
-131
-85
-104
-111
-76
-57
-57
-53
-46
-57
-67
-50
-30
-30
-25
-2
20
39
55
62
74
99
122
141
150
148
148
157
157
150
136
111
94
92
78
62
43
11
2
27
41
43
46
48
55
74
85
92
92
85
92
111
118
120
118
113
118
131
138
138
131
125
131
145
143
138
134
122
122
134
129
113
104
108
106
87
69
76
90
87
83
94
99
92
83
67
55
55
41
27
25
20
20
60
178
423
701
715
307
-111
-113
2
-46
-76
-30
-18
-37
-60
-71
-57
-37
-30
-30
-25
-11
-2
2
13
11
-13
-20
-2
18
41
53
62
81
92
99
108
99
76
71
64
48
37
25
16
20
18
6
-13
-34
-30
-13
-13
-6
6
4
2
11
18
25
25
20
23
27
20
20
23
18
11
2
-16
-23
-13
-16
-20
-16
-18
-20
-18
-13
-6
-2
-9
-6
-4
0
13
18
13
6
-20
-46
-39
-30
-34
-27
-20
-16
-6
-11
-11
37
199
495
722
532
23
-208
-85
-43
-99
-74
-48
-60
-64
-64
-57
-41
-34
-34
-27
-11
4
13
20
27
39
57
78
92
99
111
129
136
136
141
141
136
138
138
131
118
97
78
74
76
78
81
78
74
81
92
101
104
104
101
111
122
127
127
94
50
55
76
78
69
50
46
57
67
71
76
71
67
81
92
97
99
90
69
53
60
74
71
67
71
83
90
87
74
57
64
87
108
108
97
87
81
69
60
60
57
50
50
46
41
32
18
48
222
544
798
636
81
-233
-108
-39
-118
-99
-64
-85
-76
-43
-37
-34
-30
-27
-16
0
0
-11
-11
0
11
27
43
30
4
16
48
64
78
90
90
83
67
48
46
37
13
6
9
6
9
11
11
18
27
37
43
48
41
32
37
55
62
57
60
67
76
87
94
90
87
90
94
104
106
104
106
106
111
115
115
118
120
118
111
104
92
87
92
92
83
69
60
60
64
67
81
99
101
94
81
69
57
25
-27
-46
-30
-37
-62
-71
-69
-67
-41
55
289
606
717
379
-87
-159
-25
-55
-101
-69
-60
-71
-55
-37
-34
-27
-11
-6
-4
6
18
27
39
46
55
67
83
99
111
120
134
145
152
162
171
162
150
145
136
122
108
83
53
41
53
64
60
53
53
60
71
83
83
81
85
92
94
99
97
62
9
-9
11
23
18
13
11
18
32
41
41
34
30
20
4
-2
-2
-25
-57
-60
-41
-32
-27
-32
-37
-27
-11
4
18
9
-9
-18
-20
-20
-27
-50
-55
-41
-37
-39
-39
-46
-46
0
125
370
627
585
152
-199
-143
-43
-106
-125
-87
-83
-85
-69
-67
-78
-69
-53
-46
-41
-46
-71
-81
-60
-43
-41
-37
-32
-18
4
25
41
48
39
39
55
64
53
13
-30
-32
-25
-32
-34
-34
-39
-30
-16
-4
0
2
11
27
41
53
57
57
62
71
83
90
90
87
87
90
83
76
76
78
76
83
94
97
83
71
74
78
85
87
85
85
90
94
99
97
87
64
48
55
74
62
37
32
37
37
30
20
16
11
11
16
18
20
37
108
307
629
819
527
-23
-178
-25
-30
-87
-46
-27
-41
-23
-6
-2
4
16
20
27
37
43
41
50
60
50
46
64
76
85
101
118
129
141
145
148
152
148
141
129
115
106
97
83
76
71
71
76
57
30
30
41
34
39
55
57
57
57
53
57
69
71
55
27
11
25
34
32
32
25
16
20
25
23
2
-34
-37
-16
-9
-13
-34
-64
-57
-34
-37
-55
-62
-64
-62
-48
-46
-64
-69
-57
-48
-46
-50
-53
-50
-46
-32
-23
-23
-23
2
111
375
678
706
305
-99
-92
18
-34
-78
-64
-67
-67
-39
-23
-20
-27
-32
-20
-2
9
16
18
20
34
55
71
78
81
90
108
129
143
150
145
143
150
155
150
134
108
92
92
90
85
67
20
-2
6
4
4
11
6
11
30
37
46
48
41
46
60
69
76
69
57
62
78
81
83
83
71
64
67
64
50
27
18
27
32
30
32
27
25
25
25
32
27
4
-4
2
9
18
27
18
-4
-13
-4
9
2
-23
-20
11
18
-2
-23
-30
4
169
465
687
567
145
-136
-83
-6
-78
-134
-106
-83
-108
-111
-67
-62
-83
-69
-39
-37
-46
-34
-6
6
6
25
6
-64
-48
34
46
37
46
46
32
4
25
55
-6
-71
-53
-32
-50
-99
-145
-108
-69
-113
-118
-67
-94
-152
-118
-62
-74
-94
-55
6
-11
-55
-11
9
-20
0
16
0
16
46
32
-16
-25
9
4
-23
-18
9
2
-18
4
9
-9
18
34
11
6
-9
-50
-57
-37
-37
-50
-23
-18
-53
-60
-48
-39
-48
-108
-134
-60
-39
-118
-155
-92
90
365
581
495
99
-194
-152
-87
-120
-90
-60
-97
-85
-46
-60
-67
-39
-34
-43
-30
-4
4
16
39
55
43
27
46
78
81
85
122
143
157
173
141
120
166
166
106
113
141
115
92
81
34
11
41
41
27
46
64
76
87
90
94
108
101
94
113
101
48
27
50
81
94
85
78
81
76
71
69
53
67
92
71
60
83
90
113
134
99
94
131
127
111
90
50
37
55
62
41
18
27
60
187
476
720
595
145
-131
-53
23
-48
-76
-20
-20
-41
-9
-25
-74
-37
4
-27
-39
-18
-25
-16
27
60
64
48
43
62
85
104
108
81
69
81
87
97
74
18
-2
11
13
-11
-53
-71
-62
-55
-60
-39
-6
-18
-32
4
34
20
11
34
55
57
55
69
78
48
37
76
78
50
62
85
81
71
76
85
94
94
87
87
90
90
101
120
118
101
99
101
106
99
99
115
101
67
69
81
78
78
69
39
34
108
333
669
782
363
-182
-240
-81
-118
-152
-101
-94
-113
-99
-78
-71
-67
-53
-34
-37
-37
-25
-20
-13
-4
13
39
60
67
81
97
97
101
113
118
120
122
120
118
94
76
99
97
57
41
53
57
64
83
76
64
81
85
81
99
115
115
108
111
115
97
69
76
90
78
50
41
53
57
46
50
67
64
50
30
9
18
30
23
20
37
57
62
55
53
67
69
55
55
71
83
90
81
55
57
76
64
48
53
53
48
55
60
25
-13
2
76
287
634
780
421
-74
-157
-32
-57
-106
-92
-81
-64
-46
-50
-50
-41
-43
-55
-64
-57
-27
-20
-32
-39
-53
-43
-37
-50
-27
25
39
43
50
50
53
57
53
32
16
18
9
-25
-50
-71
-97
-87
-76
-83
-64
-50
-78
-81
-43
-16
-18
-25
-13
0
6
23
32
41
60
48
34
60
64
39
64
101
83
74
87
87
83
97
125
131
113
106
106
94
101
111
90
94
131
122
99
94
67
39
53
69
67
60
46
46
60
60
60
81
83
101
250
553
789
618
113
-143
-27
9
-69
-53
-20
-43
-50
-32
-25
-53
-71
-46
-46
-62
-30
6
-11
-13
23
34
30
43
60
87
113
115
118
129
143
134
118
143
157
118
94
92
50
20
34
46
43
41
50
69
78
55
25
43
78
60
41
71
99
87
74
74
78
90
94
83
74
85
99
83
87
115
99
64
50
32
16
30
57
55
20
-23
-18
32
55
37
23
39
57
32
9
6
11
32
67
78
50
43
76
78
55
48
50
32
20
18
4
0
-9
0
120
414
747
773
317
-120
-87
-11
-127
-129
-57
-81
-90
-53
-50
-50
-30
-20
-20
-4
13
25
37
37
30
43
83
97
71
69
108
138
129
131
150
145
150
173
162
136
127
106
87
87
90
76
32
18
55
53
39
60
46
41
78
74
62
94
99
64
50
64
81
76
62
69
87
83
74
76
74
74
76
71
43
11
16
30
30
46
53
30
18
41
53
41
43
55
48
30
23
13
4
6
6
6
13
4
-13
-30
-27
-2
9
4
6
6
11
53
208
500
733
606
145
-134
-37
25
-48
-32
16
6
9
18
-16
-48
-48
-43
-41
-27
-18
-11
0
20
34
37
48
67
81
94
101
87
81
122
141
104
87
76
30
-2
4
16
13
9
-4
-18
-16
-13
-18
-27
-23
2
11
-2
11
20
2
16
50
50
39
34
30
23
2
4
18
6
-2
11
6
-4
-2
0
6
16
4
-11
-18
-41
-81
-87
-69
-90
-129
-136
-122
-118
-129
-136
-129
-127
-131
-129
-129
-127
-129
-138
-141
-134
-104
-9
217
555
717
386
-122
-215
-62
-78
-118
-81
-87
-111
-90
-64
-41
-23
-27
-27
-16
-6
6
27
27
25
62
90
78
81
108
125
134
157
173
178
175
169
178
182
164
150
136
106
76
81
101
92
76
90
106
104
99
108
99
57
41
67
76
76
81
69
41
37
57
55
39
37
50
57
53
48
41
34
37
48
48
32
25
30
37
39
50
60
43
27
34
39
32
41
43
30
30
39
37
25
16
18
23
30
37
32
32
62
150
384
726
849
463
-55
-101
62
13
-48
-2
18
6
16
34
37
20
18
41
67
55
9
-16
-2
0
-4
6
-23
-50
-6
27
23
39
62
55
55
60
43
25
23
23
2
-20
-9
13
2
-6
23
34
9
-11
-11
-2
13
25
27
30
25
20
37
46
27
27
43
39
32
32
32
27
0
-20
-9
-4
-6
0
6
-9
-27
-27
-23
-9
30
48
34
46
67
48
18
0
-18
-46
-71
-57
-37
-46
-46
-27
20
219
546
650
305
-138
-215
-99
-94
-111
-81
-71
-74
-64
-57
-57
-46
-30
-13
13
41
50
46
23
16
43
81
111
125
138
157
166
148
143
175
196
178
164
164
148
127
108
87
94
125
115
99
118
118
104
108
111
104
115
129
127
136
145
120
97
81
76
108
111
74
81
106
92
76
78
74
50
60
76
67
60
41
18
25
37
20
39
76
55
25
46
62
39
23
23
6
16
39
25
18
53
76
125
324
648
814
507
-50
-213
-23
-37
-180
-159
-101
-115
-106
-99
-118
-101
-39
-16
-64
-85
-43
-48
-69
4
62
18
-25
-25
-2
20
25
34
55
46
48
67
30
-32
-34
34
64
4
-41
-18
2
-6
-34
-48
-6
11
-34
-37
27
62
2
-67
-74
-69
-67
-41
-30
-48
-60
-55
-48
-41
-43
-41
-34
-27
-20
-11
9
20
-13
-46
25
125
106
74
101
108
101
111
90
67
78
92
111
111
101
115
115
113
169
386
740
861
446
-83
-127
41
-2
-41
16
13
6
13
-18
-4
30
18
11
25
41
60
34
-16
-2
50
60
71
118
113
81
108
127
83
71
76
32
11
16
13
9
-18
-32
25
69
-6
-92
-46
20
-2
-37
16
83
67
37
57
78
71
81
85
85
87
62
53
81
76
53
53
50
37
37
50
41
23
37
71
83
92
134
129
99
104
90
69
69
74
83
85
76
78
125
287
574
854
814
294
-125
-2
115
-9
-37
-18
-90
-78
-23
-78
-90
-16
-64
-113
-11
23
-94
-118
13
55
-16
-30
30
120
97
-67
-69
99
41
-125
-23
138
97
34
11
-48
-32
2
-53
-81
-55
-32
-6
0
-37
-32
20
20
18
41
81
83
-6
-11
120
127
16
13
60
60
99
111
60
71
87
78
83
55
83
143
83
30
43
55
101
94
27
43
90
50
27
99
115
55
32
43
71
78
57
90
236
569
856
655
166
-18
34
-23
-23
55
-43
-118
-41
-43
-57
13
39
0
-37
-43
-37
-25
0
13
11
11
2
25
76
57
32
69
69
41
60
97
83
23
2
13
-2
-13
9
-6
-64
-48
-11
-18
-13
-11
0
34
30
18
37
30
0
-2
48
104
71
27
6
-48
-48
9
20
4
4
4
34
76
41
4
39
57
30
25
27
6
16
48
43
39
62
43
4
20
60
60
43
81
162
344
671
854
493
-81
-171
-2
-50
-94
-6
-34
-111
-39
20
-25
-39
-20
-39
-50
-6
25
-9
-23
18
6
-46
-13
43
39
41
60
62
74
76
37
16
53
50
-6
-41
-60
-74
-71
-92
-118
-129
-150
-148
-150
-187
-192
-187
-222
-219
-192
-226
-210
-127
-162
-217
-171
-141
-157
-138
-108
-129
-136
-94
-87
-101
-78
-50
-39
-46
-37
-2
-4
-41
-2
34
-25
-50
-6
9
-13
-13
16
2
34
199
400
657
826
511
-32
-115
67
37
-41
-13
13
18
41
57
48
41
43
46
39
55
99
94
78
97
71
18
55
122
108
92
81
18
23
94
81
32
27
39
53
39
16
16
-6
-34
-30
-27
-50
-53
-4
-9
-55
-37
-55
-97
-50
-37
-67
-30
2
-13
-20
-23
-18
9
30
4
-41
-20
39
43
20
25
46
50
41
37
18
9
78
127
99
106
122
69
25
62
108
90
67
97
74
-4
30
136
226
428
736
835
451
-55
-120
-2
-60
-94
-43
-20
-30
-69
-90
-74
-69
-46
11
11
-53
-48
2
-11
-32
11
57
53
53
64
41
41
83
115
118
85
53
74
94
67
48
64
74
50
11
-2
11
25
18
-11
-30
-11
11
4
4
11
-2
-23
0
43
41
-4
-50
-39
16
6
-25
2
11
9
27
6
-4
11
30
76
92
11
-53
-23
0
-4
39
50
23
32
20
-6
39
62
37
37
6
20
69
34
9
69
127
240
516
805
770
305
-101
-48
69
-11
-20
81
97
32
11
48
57
60
74
69
60
57
64
57
34
60
64
32
90
141
30
-13
94
127
92
101
76
41
67
71
27
2
-2
-25
-60
-34
25
9
-53
-74
-78
-50
-25
-30
23
69
6
-62
-71
-32
157
801
1518
1414
1032
1046
865
534
618
1234
1453
449
497
3433
4290
259
-1727
-92
-48
-833
-442
-266
-520
-393
-280
-402
-363
-229
-245
-289
-273
-273
-289
-314
-296
-273
-333
-340
-134
226
539
553
122
-328
-307
-203
-296
-252
-145
-224
-252
-148
-180
-245
-157
-115
-196
-217
-162
-143
-171
-185
-159
-106
-87
-155
-182
-122
-115
-94
-53
-101
-106
-76
-138
-157
-113
-162
-203
-148
-145
-199
-182
-164
-194
-189
-162
-180
-196
-173
-111
-71
-145
-175
-64
-50
-120
-55
-9
-78
-60
-2
-50
-85
-32
-9
-27
-11
2
-18
-20
-18
-4
48
62
30
64
115
78
55
92
71
57
92
76
43
94
127
69
53
122
171
252
500
821
884
460
-13
-41
78
57
39
30
0
6
27
43
76
62
4
32
69
4
-6
60
57
34
50
57
62
83
113
155
166
127
90
90
83
27
2
57
85
20
-30
-16
-2
18
20
-23
-16
20
13
13
16
25
62
60
2
-6
20
9
13
60
78
37
20
50
76
87
57
18
48
87
69
34
55
111
104
60
64
122
152
74
-25
18
99
25
-64
-50
-60
-69
-25
-11
-43
-37
99
393
664
601
134
-208
-115
-53
-152
-127
-53
-87
-125
-74
-32
-57
-74
-55
-27
-32
-50
-13
18
2
-11
9
50
50
23
39
78
55
16
41
78
53
-4
4
60
25
-20
13
25
-27
-57
-25
0
-23
-11
41
48
13
25
67
39
0
13
4
-43
-50
-20
-4
18
30
-6
-27
18
43
23
11
18
39
67
76
43
-6
-2
34
64
87
85
67
78
99
92
81
83
62
23
34
97
101
62
113
307
615
861
701
166
-127
-11
34
-9
62
81
11
27
71
62
60
64
48
18
6
69
125
76
34
69
87
67
71
94
94
85
78
76
78
76
67
48
39
37
11
-30
-48
-53
-57
-50
-48
-76
-92
-74
-55
-46
-27
-16
-27
-18
4
-9
-6
13
-20
-37
16
34
9
13
30
30
32
46
62
64
46
48
71
71
71
81
64
60
111
143
115
90
104
118
106
64
11
9
46
27
0
39
90
150
356
692
798
423
-20
-62
41
20
-6
6
6
4
11
30
25
-23
-39
-20
-43
-69
-55
-43
-46
-39
-20
-9
-2
4
25
46
39
46
64
60
48
39
32
23
-9
-34
-37
-46
-55
-39
-25
-43
-50
-30
-9
-13
-30
4
50
32
-4
4
37
32
-6
-16
2
2
6
30
34
37
41
25
23
50
53
41
64
85
76
87
108
99
71
53
67
87
71
34
13
4
-4
46
222
539
777
562
41
-173
-55
-25
-85
-69
-41
-43
-27
-11
-30
-32
-11
-11
-13
-2
-18
-55
-53
-18
-2
9
18
16
32
64
71
64
60
57
53
50
53
43
20
20
23
6
0
9
2
4
25
41
46
37
20
37
64
67
71
90
78
67
83
85
62
37
30
39
48
60
53
20
11
34
48
50
53
37
23
50
85
94
85
41
2
6
20
27
13
-23
-46
-34
-18
-2
48
187
479
801
740
208
-162
-67
4
-92
-87
-34
-46
-55
-39
-25
-13
-11
-16
-11
-4
-2
9
25
18
9
20
30
34
46
60
69
69
55
48
46
16
-20
-30
-39
-62
-69
-76
-111
-120
-94
-94
-115
-108
-104
-120
-122
-104
-101
-108
-104
-90
-83
-87
-108
-115
-97
-94
-104
-92
-78
-71
-62
-55
-46
-34
-39
-39
-41
-41
-30
-16
-13
2
30
43
41
39
57
71
53
46
60
57
57
74
81
78
99
173
368
689
900
632
90
-74
55
20
-43
2
0
-32
-6
23
11
11
34
37
34
48
60
64
76
78
78
92
108
113
113
122
141
145
141
136
108
67
53
60
55
43
32
11
-4
6
16
-2
-23
-18
-16
-16
-13
-20
-18
-6
-9
-6
11
20
9
6
16
30
39
30
18
27
39
43
50
57
50
41
32
11
0
-2
-2
6
18
20
9
-13
-32
-6
27
32
25
27
34
34
23
23
27
27
32
50
67
69
87
169
391
706
780
393
-37
-62
34
-18
-43
2
-13
-64
-53
-30
-41
-37
-23
-25
-25
-20
-16
-6
0
-6
-6
-2
2
9
9
6
13
30
37
27
16
11
9
6
-13
-55
-94
-106
-113
-120
-118
-120
-127
-118
-104
-87
-64
-62
-69
-62
-46
-32
-20
-11
-16
-18
-4
2
4
16
18
11
25
37
34
43
50
34
34
57
64
55
62
76
76
83
81
46
23
48
78
85
78
76
83
81
67
71
92
97
87
85
92
120
215
437
750
849
479
9
-57
30
-16
-25
20
16
6
25
27
27
53
71
62
57
67
62
55
71
76
71
78
87
94
111
122
125
134
138
138
127
99
90
85
55
32
30
13
9
6
-9
-6
11
9
-2
16
37
30
0
-27
-25
-11
-4
6
11
0
4
20
25
18
13
16
25
13
0
6
0
-23
-13
9
6
-18
-43
-41
-23
-18
-16
-16
-11
0
16
32
48
55
48
53
69
64
48
50
57
62
71
81
81
76
104
245
546
845
754
236
-94
6
69
-18
-18
13
0
2
20
23
25
27
25
34
43
48
48
41
37
39
32
23
2
-20
-16
-4
-11
-9
-4
-23
-41
-41
-34
-41
-60
-74
-57
-41
-48
-50
-43
-37
-30
-18
-2
4
-4
2
20
25
37
50
41
37
53
67
74
71
50
43
62
78
83
78
71
76
87
94
92
87
83
101
122
120
111
113
115
120
129
125
113
115
125
129
145
169
164
145
138
134
118
111
104
85
71
57
39
34
32
46
213
534
736
516
32
-166
-53
-25
-81
-69
-60
-83
-85
-69
-67
-71
-50
-41
-53
-46
-23
-27
-43
-41
-25
-6
6
16
27
43
60
64
71
87
87
69
69
87
90
67
53
57
48
37
30
6
-25
-25
-4
-2
0
9
18
23
16
13
23
20
18
25
23
11
-4
-11
-9
-6
-6
-4
-16
-48
-57
-41
-34
-32
-30
-34
-30
-18
-13
-11
-11
-18
-13
0
-4
-18
-18
-16
-25
-32
-27
-32
-46
-57
-57
-57
-60
-55
-50
-53
-39
13
162
446
673
490
-6
-233
-122
-92
-150
-120
-87
-101
-99
-81
-76
-76
-76
-74
-67
-57
-41
-23
-11
-9
-9
-23
-34
-9
25
37
41
55
62
67
81
90
76
41
11
6
13
16
9
0
-2
6
25
30
9
6
30
41
50
62
60
57
69
81
92
99
90
78
85
108
113
104
97
104
113
115
120
125
118
113
125
134
131
122
122
127
115
104
115
122
104
85
85
94
104
115
104
78
81
90
85
74
57
60
76
74
67
55
30
30
97
287
608
826
569
25
-148
-2
-27
-145
-136
-97
-101
-90
-67
-67
-67
-53
-37
-23
-6
-11
-27
-16
9
18
11
-4
-13
2
27
48
62
60
60
71
76
69
64
50
18
6
20
18
2
0
2
2
13
32
34
20
-6
-23
-9
-2
-11
-9
-2
4
11
13
9
4
6
9
13
13
11
11
9
0
-6
-18
-25
-13
-6
-11
-16
-34
-71
-85
-67
-50
-50
-60
-60
-46
-27
-13
-4
9
27
27
20
20
16
-2
-18
-16
-6
-9
-11
-4
-2
11
92
307
625
759
444
-32
-125
9
-6
-55
-23
-16
-39
-27
-6
-13
-9
11
13
16
32
39
41
62
81
81
87
101
111
120
125
125
125
136
150
157
150
143
145
138
131
125
113
101
97
92
99
106
97
99
108
113
122
136
131
111
85
74
83
94
97
97
85
76
78
87
87
78
81
94
101
99
99
94
92
94
92
81
48
9
13
41
50
46
37
27
37
55
74
90
78
50
46
34
0
-13
-6
-13
-13
-6
-6
-9
-13
25
236
567
694
375
-85
-180
-50
-50
-85
-55
-41
-50
-37
-23
-16
-18
-46
-62
-41
-23
-20
-11
-4
-9
-2
23
46
55
55
67
94
108
108
111
108
106
115
120
111
83
43
34
48
43
41
41
32
37
55
67
71
69
67
74
67
55
69
78
67
71
83
81
83
83
74
81
92
92
92
97
90
85
99
111
104
92
85
78
76
81
83
76
67
67
76
83
85
90
92
85
78
57
9
-30
-37
-32
-30
-32
-34
-32
-20
27
189
495
754
590
55
-213
-83
-48
-129
-97
-62
-81
-60
-32
-37
-37
-39
-48
-39
-23
-23
-16
0
16
27
37
53
64
71
85
104
115
122
131
129
122
127
120
118
122
99
74
81
78
69
71
74
76
71
62
74
92
92
92
94
97
106
106
99
104
83
37
37
69
62
46
46
43
25
16
16
11
18
37
39
34
32
27
27
18
-2
-23
-23
-18
-25
-25
-18
-23
-32
-46
-76
-99
-97
-92
-104
-115
-101
-46
83
338
595
520
69
-238
-152
-76
-138
-141
-111
-113
-99
-90
-108
-122
-111
-104
-94
-76
-76
-83
-74
-60
-48
-41
-43
-39
-13
2
4
4
-4
-30
-39
-37
-60
-92
-108
-111
-111
-111
-111
-106
-106
-108
-104
-104
-94
-78
-71
-64
-34
-4
-6
-18
-4
9
20
34
43
43
37
43
62
67
69
67
50
62
92
97
90
97
97
99
111
120
113
92
81
90
94
83
85
101
108
101
106
113
111
97
83
81
90
97
99
92
78
83
164
391
710
819
426
-111
-169
0
-64
-164
-134
-125
-138
-113
-94
-101
-97
-78
-64
-57
-50
-43
-32
-18
-2
13
18
25
34
48
69
90
97
99
106
113
118
120
118
106
81
71
74
57
39
41
48
55
62
71
83
90
85
83
92
101
99
94
94
101
113
108
101
113
113
108
104
78
48
43
53
87
97
74
87
106
62
-30
-60
20
37
-50
-55
25
50
2
-48
-67
-30
16
-20
-64
-37
-13
-60
-78
-2
64
217
548
715
414
-30
-159
-64
-50
-131
-180
-159
-120
-104
-108
-111
-101
-94
-85
-69
-64
-76
-78
-57
-55
-60
-9
43
2
-50
-23
9
23
39
39
30
9
-11
-9
-11
-34
-32
-27
-46
-30
-37
-113
-99
-23
-25
-50
-39
-37
-53
-53
-23
-4
-30
-81
-99
-78
-78
-85
-50
-13
-43
-87
-78
-74
-60
-9
-9
-25
2
-6
-50
-57
-46
-41
-23
2
16
32
16
-20
46
104
0
-106
-4
196
162
-16
-34
20
2
37
305
636
659
324
-20
-99
-67
-78
-76
-60
-69
-74
-20
-2
-74
-113
-99
-99
-55
9
-32
-64
-11
4
-9
6
18
32
39
30
43
71
74
74
81
55
57
67
9
-18
13
0
-55
-85
-94
-78
-41
-27
-32
-20
-6
-18
6
41
11
-16
2
20
39
41
4
-23
-32
-20
0
2
6
0
-23
-30
-20
-11
-2
2
2
0
4
6
9
-9
-23
-2
23
16
6
11
25
87
259
544
752
541
57
-122
-11
2
-34
2
18
-2
-2
11
16
6
-23
-43
-16
-4
-57
-85
-62
-32
-9
4
-11
-20
2
6
-11
-4
23
25
16
9
-2
-11
-4
-9
-27
-39
-34
-30
-39
-50
-55
-69
-90
-81
-57
-48
-48
-37
-23
-23
-20
-13
-2
16
18
2
2
18
25
20
25
34
48
74
87
81
74
71
62
60
64
69
69
67
74
74
57
85
215
490
810
819
342
-122
-122
-6
-41
-43
-9
-18
-23
-9
-6
2
20
20
16
30
53
60
57
67
74
74
78
74
55
37
32
43
60
64
57
55
60
62
55
41
18
2
-11
-23
-34
-48
-62
-67
-55
-48
-48
-39
-39
-43
-30
-20
-25
-16
-6
-11
-20
-32
-30
-23
-32
-37
-23
-11
-4
-13
-53
-81
-43
-9
-20
-30
-55
-97
-94
-71
-69
-71
-69
-64
-48
-34
-9
85
335
689
819
442
-92
-201
-83
-120
-148
-90
-83
-101
-85
-67
-60
-46
-32
-30
-43
-41
-11
9
13
23
25
34
62
81
94
104
90
94
127
134
127
131
125
94
62
41
32
11
-6
-4
-2
-9
-11
-2
-2
0
11
20
27
27
13
2
0
-11
-23
-18
-16
-18
-13
-6
-9
-16
-16
-11
-11
-27
-62
-78
-76
-90
-99
-83
-76
-92
-104
-90
-67
-53
-48
-50
-55
-39
25
203
527
810
669
118
-206
-83
-11
-83
-62
-13
-16
-13
0
-13
-46
-41
-4
13
6
23
39
32
30
39
46
62
78
101
122
138
148
155
157
164
169
157
141
138
134
113
97
92
83
71
69
64
48
34
43
55
39
6
-27
-50
-48
-34
-41
-37
-13
-4
-9
0
-2
-16
-25
-23
-27
-37
-41
-43
-50
-43
-18
-4
-9
-11
-2
-20
-48
-41
-23
-27
-43
-48
-39
-32
-32
-27
-25
-20
-6
-6
-13
-6
2
16
74
273
659
995
798
127
-203
-23
25
-76
-32
20
-6
-13
0
-6
-2
13
16
18
16
9
11
18
27
46
37
2
-2
34
60
62
76
97
108
115
125
127
113
90
76
74
76
69
46
30
30
34
34
23
6
11
27
39
41
30
18
27
41
48
69
69
37
25
39
32
25
32
18
4
11
18
23
23
13
11
23
20
6
2
2
0
2
9
30
34
9
11
41
55
48
34
25
30
39
46
57
50
43
57
71
90
182
437
794
891
437
-99
-111
30
-60
-94
-13
-13
-27
-2
-9
-25
-4
18
20
23
32
37
43
53
60
64
69
85
113
131
138
136
141
145
141
127
115
108
101
90
60
37
34
9
-13
0
25
46
57
2
-74
-78
-48
-46
-53
-64
-69
-41
-30
-55
-55
-39
-41
-39
-32
-62
-97
-85
-81
-90
-69
-48
-62
-67
-48
-32
-37
-50
-48
-30
-18
-9
-16
-43
-53
-48
-50
-41
-25
-25
-18
16
41
39
27
37
55
46
20
20
39
50
60
55
23
23
90
266
604
900
736
171
-118
2
34
-62
-64
-41
-67
-74
-55
-55
-57
-37
-27
-32
-18
0
-4
2
11
4
25
67
71
53
34
0
0
41
39
-11
-41
-27
-6
-11
-23
-43
-60
-37
-25
-50
-60
-43
-32
-18
-2
6
6
2
4
18
37
34
27
27
27
34
41
34
30
27
37
43
39
48
57
43
50
74
67
41
25
16
23
41
48
39
39
71
97
83
74
81
71
71
101
125
113
99
90
71
55
55
74
101
90
43
46
78
106
226
497
745
680
252
-76
-37
32
-13
-16
4
-9
-46
-76
-90
-97
-76
-46
-48
-71
-71
-53
-53
-60
-53
-71
-106
-97
-64
-53
-50
-57
-104
-178
-136
-23
-25
-69
-87
-118
-111
-85
-108
-141
-134
-101
-111
-141
-127
-69
16
-11
-125
-108
-16
4
2
23
-4
-50
-37
18
62
67
34
-25
-4
71
64
50
53
50
81
78
55
143
189
27
-18
115
101
64
108
78
32
25
4
0
20
23
9
4
0
-11
-30
-16
20
46
175
469
645
419
-11
-213
-145
-120
-173
-148
-106
-134
-145
-118
-101
-97
-94
-85
-50
-37
-55
-43
-71
-134
-83
-13
-39
-32
23
27
16
48
64
34
32
67
87
78
53
67
99
78
41
30
37
50
62
78
71
48
60
71
57
60
69
48
18
20
25
20
27
39
53
60
46
41
57
60
62
57
18
13
78
85
30
43
101
111
83
60
62
74
53
46
57
20
-2
25
13
20
104
245
435
678
657
138
-180
-9
46
-97
-106
-43
-76
-87
-81
-62
-32
-71
-87
-46
-37
-13
39
-30
-143
-16
43
-180
-164
74
83
-81
-129
-25
18
-55
-78
-20
-27
-83
-39
30
-27
-196
-273
-120
-71
-201
-166
-83
-145
-148
-78
-60
-120
-122
-37
-69
-67
37
-71
-273
-164
23
-57
-127
-53
-39
-62
-34
-32
-62
-53
-37
-27
-16
-34
-34
-11
-25
-60
-55
-41
-76
-127
-127
-85
-62
-50
57
317
525
391
30
-152
-101
-48
-64
-92
-83
-55
-41
-16
2
37
97
53
2
57
81
50
4
-23
18
43
30
32
11
-32
-37
-13
0
-9
-32
-11
9
-20
-55
-62
-25
-16
-43
-41
-25
-30
-23
-2
-11
-18
18
30
6
27
74
81
74
67
71
90
74
41
64
111
120
108
129
136
74
60
138
180
169
182
162
92
120
178
148
152
192
162
141
173
219
377
694
861
555
87
-27
60
20
-48
-32
-16
-41
-50
-37
-41
-43
-25
-4
11
11
6
4
11
41
64
67
69
83
94
111
120
83
57
104
134
115
111
108
94
90
104
99
55
-9
-74
-92
-53
-32
-55
-87
-99
-85
-60
-57
-85
-97
-92
-83
-57
-39
-50
-60
-43
-23
-37
-62
-50
-34
-30
-30
-27
-27
-41
-60
-64
-76
-78
-57
-60
-64
-43
-53
-74
4
247
574
701
361
-134
-231
-118
-150
-175
-129
-145
-173
-141
-125
-143
-127
-92
-90
-97
-92
-76
-57
-48
-39
-32
-32
-18
4
25
34
37
57
94
104
83
74
87
83
74
71
62
53
60
60
55
71
78
50
39
46
46
39
32
23
23
18
9
23
39
32
34
32
13
11
11
2
25
34
0
9
50
48
25
27
39
25
-25
-53
-30
-9
-2
11
2
-11
46
266
634
877
629
81
-113
20
18
-48
-13
9
-4
6
18
16
25
34
43
71
87
76
71
76
81
90
104
113
113
108
127
171
171
131
111
97
64
60
97
108
97
87
60
25
39
78
64
53
81
81
62
69
83
87
83
83
92
99
104
104
97
78
34
4
16
25
34
46
23
13
32
37
43
53
16
-37
-55
-50
-53
-78
-76
-46
-48
-74
-78
-67
-48
37
291
622
683
282
-138
-150
-55
-106
-122
-85
-94
-134
-150
-150
-138
-134
-134
-120
-106
-108
-106
-92
-87
-74
-46
-39
-50
-39
-9
11
20
34
41
23
23
53
55
30
27
37
37
20
4
2
2
-2
2
18
34
41
13
-11
-2
18
34
41
32
34
50
62
67
69
55
43
46
55
74
83
71
62
71
74
60
53
55
57
46
11
-16
-23
-25
9
180
520
791
604
69
-182
-69
-37
-99
-83
-62
-74
-57
-30
-30
-34
-25
-18
-6
11
18
9
6
23
41
50
43
32
39
67
90
113
113
83
92
129
115
87
87
53
0
2
18
9
-6
0
25
34
34
48
48
34
46
69
69
60
64
78
81
69
55
34
2
0
25
32
27
39
39
20
9
23
43
57
57
32
20
46
60
30
-23
-46
-39
-25
9
25
-23
-37
92
409
805
849
317
-196
-166
-57
-143
-134
-83
-106
-94
-53
-48
-53
-48
-48
-41
-23
-23
-48
-62
-50
-37
-23
-6
2
11
25
48
74
83
76
69
64
60
62
67
34
-11
-18
0
6
-2
-2
0
2
11
23
27
27
27
20
23
53
76
69
67
76
81
90
111
115
99
85
71
41
37
67
85
71
60
60
57
53
50
55
71
81
69
69
78
76
64
55
39
37
41
23
25
46
30
13
16
13
9
67
305
692
870
488
-92
-192
-53
-120
-175
-125
-131
-152
-106
-57
-50
-53
-43
-32
-20
4
16
-4
-6
18
37
50
71
85
97
108
120
129
129
127
122
113
113
118
108
90
69
62
67
76
81
71
67
81
85
76
78
76
55
55
62
57
71
76
48
41
53
39
16
18
41
85
104
74
41
2
-64
-76
-48
-81
-118
-125
-159
-180
-143
-120
-131
-138
-131
-115
-90
-76
-85
-94
-74
-25
-2
-2
-18
-30
-9
4
-9
-16
-13
-13
-16
-25
-27
-9
34
213
583
861
634
94
-115
-20
-37
-90
-57
-57
-83
-64
-34
-39
-50
-46
-46
-57
-74
-81
-37
6
-18
-50
-43
-16
2
-13
-20
16
37
11
-4
-4
-20
-18
-11
-30
-50
-85
-122
-122
-106
-92
-71
-83
-118
-122
-99
-85
-106
-120
-97
-76
-78
-92
-108
-108
-101
-83
-62
-69
-69
-37
-27
-50
-48
-20
-20
-27
-11
-2
4
16
20
13
9
16
37
50
43
34
43
48
23
20
53
60
43
53
78
92
94
90
81
83
85
71
62
60
43
43
50
25
16
81
266
571
803
627
145
-97
-20
-11
-57
-27
-13
-37
-43
-62
-69
-41
-34
-41
-27
-16
-18
-9
11
20
13
23
48
46
39
57
62
53
55
55
43
41
55
60
53
37
25
25
13
0
-9
-23
-25
-13
-2
0
-23
-46
-20
-2
-23
-20
-2
-6
-20
-39
-50
-32
-13
-18
-20
-6
0
-2
-4
-2
6
23
27
6
-25
-48
-48
-41
-55
-62
-46
-41
-48
-25
-2
-13
-4
16
9
4
11
-6
-27
-23
-16
-20
-30
-48
-48
0
143
414
648
507
57
-166
-78
-64
-125
-111
-97
-104
-90
-90
-101
-92
-76
-76
-69
-48
-41
-43
-30
-16
-27
-39
-23
-6
0
13
32
53
71
78
76
74
74
83
78
64
53
32
13
27
27
0
4
37
46
41
27
0
6
34
34
25
39
53
50
55
67
69
57
50
60
81
90
74
53
74
108
113
94
78
67
71
85
87
81
81
87
106
127
125
101
87
78
62
67
62
30
9
18
27
27
74
256
583
814
601
85
-131
-34
-39
-104
-76
-69
-92
-81
-69
-78
-69
-43
-30
-25
-16
-9
-6
0
18
30
34
39
55
81
90
69
53
67
78
71
71
46
-4
-23
-11
-20
-41
-55
-57
-57
-55
-46
-34
-32
-11
11
13
16
30
39
46
57
55
41
37
32
25
25
32
43
67
64
23
6
37
64
60
62
83
104
97
41
0
41
69
25
27
129
175
94
67
134
143
81
55
55
0
-46
27
90
50
71
226
502
803
828
395
-64
-97
-6
-74
-111
-78
-71
-64
-71
-60
-13
-92
-178
-69
4
-32
-25
-2
-2
6
20
37
46
-6
-71
0
74
32
32
94
94
46
23
23
43
43
9
-2
11
4
-9
-4
4
9
16
27
20
6
20
25
27
64
94
94
46
-16
16
83
60
37
74
74
55
71
78
71
83
83
50
11
-9
-4
16
41
48
30
4
20
60
64
41
27
30
46
53
57
50
25
6
71
303
592
601
270
-16
-53
-48
-85
-76
-74
-99
-87
-62
-69
-83
-94
-94
-67
-50
-50
-43
-34
-25
-4
4
4
11
20
32
50
67
57
23
4
25
46
50
43
20
9
11
4
-16
-34
-32
-11
9
16
18
25
32
37
43
48
53
32
4
16
34
25
27
34
30
23
13
2
6
23
18
9
13
39
55
37
25
30
46
76
92
85
81
78
78
78
76
74
76
76
76
83
87
99
226
532
821
764
317
-34
2
76
16
6
32
20
13
9
-11
-23
-13
-6
-6
-4
0
6
9
16
25
30
41
43
37
39
39
37
41
27
-13
-18
-6
-27
-62
-81
-85
-87
-92
-97
-87
-92
-106
-99
-83
-74
-67
-64
-53
-32
-27
-30
-13
0
4
9
13
23
34
32
23
23
30
43
43
34
41
60
64
57
55
69
94
99
64
53
69
64
55
69
71
55
53
60
57
62
111
268
576
865
761
266
-48
23
67
-4
11
48
32
11
6
11
20
30
34
32
34
34
30
27
23
2
-25
-16
9
18
18
6
-20
-13
13
16
6
0
-11
-32
-50
-57
-67
-92
-106
-92
-81
-83
-83
-81
-74
-62
-69
-71
-55
-55
-60
-43
-23
-18
-25
-25
-11
2
4
11
16
4
11
32
32
30
30
27
37
48
48
48
41
25
25
53
64
53
43
39
37
41
39
39
48
46
41
53
60
64
150
428
782
817
363
-76
-74
9
-50
-41
6
-13
-32
-9
6
11
20
20
13
18
27
27
16
13
18
20
30
48
60
57
62
87
108
101
97
111
108
76
55
46
16
-13
-20
-27
-25
-18
-25
-32
-41
-67
-71
-55
-57
-62
-53
-41
-32
-30
-23
-11
-4
2
9
11
4
9
23
20
13
13
-11
-39
-23
-9
-13
0
4
-4
2
13
23
55
71
53
39
37
34
30
27
37
39
37
37
41
39
46
87
229
539
849
782
300
-55
-9
55
-9
-2
39
25
13
30
39
39
34
20
4
-4
-13
-9
2
-4
-11
-13
-43
-53
-13
16
18
25
30
34
43
41
39
23
-4
-6
-6
-41
-83
-122
-148
-138
-127
-136
-145
-138
-125
-118
-122
-125
-120
-113
-106
-99
-83
-74
-83
-87
-85
-78
-69
-62
-57
-62
-74
-64
-46
-50
-71
-64
-41
-41
-41
-27
-25
-32
-25
-23
-46
-74
-76
-69
-50
-16
6
16
4
-2
18
39
46
39
30
34
46
60
69
60
53
92
238
546
884
870
386
-18
20
94
16
13
55
27
-2
9
6
-30
-50
-37
-30
-27
0
9
-2
2
20
37
50
53
46
57
67
64
67
67
57
57
67
74
62
39
23
16
9
-9
-48
-76
-69
-53
-39
-25
-20
-25
-20
0
16
23
27
25
27
48
62
67
71
69
67
78
92
92
92
99
99
99
108
108
101
101
90
92
115
115
99
101
106
111
125
108
64
53
71
76
78
85
92
115
129
118
115
131
136
129
115
104
99
78
55
48
37
16
30
150
432
764
773
321
-81
-67
4
-64
-69
-25
-41
-60
-53
-62
-74
-55
-50
-60
-50
-41
-37
-27
-25
-25
-16
-4
11
30
34
30
30
25
27
37
37
37
39
32
6
-6
-11
-30
-37
-37
-43
-48
-81
-111
-99
-76
-67
-60
-46
-37
-34
-20
2
2
-6
9
37
53
39
20
25
25
2
-4
16
18
13
32
46
43
43
55
71
83
81
83
87
83
85
104
120
122
99
71
76
101
120
134
129
104
97
108
104
94
94
87
83
83
76
71
53
43
129
368
692
817
479
4
-90
4
-6
-9
18
0
-11
11
23
13
-2
-20
-27
-18
-18
-16
-6
2
4
-9
-2
16
9
20
67
90
97
108
108
108
122
127
115
101
85
74
69
74
78
69
55
60
81
99
104
97
87
92
113
129
118
106
101
108
120
125
120
111
104
113
127
122
111
108
111
111
108
113
99
55
27
39
48
46
46
48
60
74
64
50
55
60
46
25
4
-27
-64
-92
-99
-94
-94
-81
18
310
715
842
412
-129
-180
-48
-113
-141
-76
-78
-92
-60
-46
-48
-32
-20
-30
-32
-18
-2
13
25
23
27
53
69
76
90
104
113
127
155
169
155
150
159
134
104
94
78
57
57
62
60
57
57
62
57
39
41
62
64
62
71
78
60
30
32
55
53
46
53
32
-9
0
30
25
20
23
20
30
46
37
13
13
20
25
41
46
32
20
25
34
46
62
69
62
53
48
43
27
4
-9
0
9
9
6
4
-2
50
296
708
970
680
67
-143
6
-2
-81
-46
-23
-41
-46
-39
-34
-37
-32
-13
-2
2
4
-6
-20
-6
20
30
32
43
62
78
99
118
106
67
48
64
69
53
34
23
18
13
13
6
-11
-18
-4
11
18
27
27
20
34
55
57
41
0
-23
9
25
20
20
-6
-32
-11
6
9
9
0
2
25
37
34
39
37
30
27
13
13
23
4
-9
9
27
34
39
39
30
25
27
27
13
-2
-6
-11
-20
-18
-20
-34
-34
-16
13
143
479
847
814
289
-129
-104
-81
-182
-162
-106
-120
-111
-83
-85
-85
-64
-48
-50
-67
-74
-43
9
23
-9
-16
20
30
27
71
92
76
85
104
87
97
141
129
78
62
67
50
39
37
32
32
46
50
41
41
48
25
-13
9
64
62
37
46
62
62
60
62
71
83
85
64
50
113
152
78
48
87
74
60
83
87
76
57
30
27
41
53
53
30
13
30
57
64
62
64
62
62
62
64
57
43
46
53
53
43
23
-13
-32
30
217
534
736
500
43
-106
-30
-50
-94
-71
-50
-55
-62
-83
-99
-83
-53
-48
-50
-41
-34
-25
-11
0
23
39
39
46
74
92
81
60
57
50
55
83
76
39
11
-9
-13
-16
-25
-43
-55
-23
-2
-11
6
0
-43
-43
-16
-11
-13
-16
-18
-4
13
16
4
-4
-4
-11
-16
-9
-9
-18
-13
2
13
13
11
4
2
11
18
11
-4
-11
2
18
23
20
13
0
-9
-16
-27
-37
-41
-55
-53
-41
-48
-43
55
310
606
615
236
-104
-111
-57
-97
-97
-71
-97
-115
-69
-13
-20
-71
-69
-23
-18
-20
6
39
43
37
48
62
85
108
113
115
118
122
134
138
99
50
50
67
76
67
43
37
43
39
39
48
48
27
9
13
27
37
41
41
48
64
74
69
64
67
71
74
67
55
53
60
62
64
71
64
32
32
99
122
53
57
125
106
83
115
120
94
85
87
83
83
99
97
74
57
62
127
335
655
787
500
90
-4
48
-43
-111
-62
-48
-74
-67
-62
-76
-74
-60
-57
-55
-53
-57
-71
-76
-53
-48
-55
-37
-13
-4
0
-13
-37
-37
-27
-37
-43
-37
-25
-32
-41
-30
-30
-48
-48
-34
-34
-37
-23
-13
-9
4
9
11
23
25
25
32
37
39
39
39
39
37
32
27
27
23
18
16
13
16
11
13
34
46
37
27
-2
-39
-39
-34
-53
-60
-50
-39
-32
-41
-67
-78
-6
219
555
717
416
-43
-145
-46
-87
-143
-104
-92
-108
-90
-69
-69
-64
-50
-41
-37
-18
2
0
-11
-9
0
-2
0
9
11
25
50
60
64
62
53
53
60
67
62
41
16
4
6
13
11
6
4
18
34
48
55
53
53
60
83
104
92
50
27
41
53
48
32
9
6
20
27
32
41
41
57
81
78
69
74
67
62
71
81
85
87
81
83
92
97
104
173
407
803
1027
694
108
-39
92
57
13
62
62
41
50
57
64
78
78
69
67
71
78
83
87
76
71
85
101
108
118
122
122
131
143
150
150
136
113
94
81
55
20
-25
-53
-50
-43
-48
-74
-106
-113
-108
-108
-101
-120
-152
-145
-122
-115
-108
-99
-99
-92
-81
-74
-69
-64
-64
-67
-60
-43
-46
-55
-53
-37
-18
-4
-4
-4
4
0
-16
-25
-37
-48
-41
-37
-41
-39
-41
-25
99
423
810
845
340
-136
-115
-16
-94
-101
-53
-62
-57
-37
-32
-16
-2
-20
-41
-34
-20
-11
-4
4
0
2
27
43
50
69
83
87
97
87
55
39
48
43
32
20
4
-2
-2
-2
-2
-2
2
16
27
27
37
39
18
20
32
13
-11
-23
-27
-16
0
2
0
-2
0
9
18
16
16
20
27
37
41
37
34
41
50
69
101
111
92
92
97
67
34
37
30
11
27
57
53
39
57
155
412
740
801
412
-18
-46
64
23
2
27
-6
-32
-6
0
0
16
18
16
32
50
57
57
57
69
87
101
97
83
90
118
125
125
134
125
113
125
134
122
104
64
13
0
-6
-13
4
9
-6
2
23
30
32
30
37
50
41
11
-6
-13
-27
-46
-53
-39
-30
-37
-32
-25
-32
-25
-11
-11
-4
25
43
39
37
39
39
37
32
32
37
39
41
43
55
60
71
201
507
750
569
76
-180
-115
-74
-99
-78
-57
-64
-57
-37
-23
-16
-6
-2
4
23
41
46
48
53
64
81
94
108
115
111
120
141
145
118
85
74
71
71
62
50
41
27
20
23
23
16
13
18
18
20
30
39
39
39
41
46
53
53
53
50
30
18
16
-2
-16
-9
-9
-30
-43
-60
-85
-87
-76
-71
-55
-34
-25
-30
-25
-13
-11
-23
-27
-16
-6
2
9
9
-2
2
57
245
581
847
678
155
-106
4
30
-67
-76
-48
-46
-34
-23
-27
-25
-13
6
20
18
13
27
46
53
62
74
83
97
106
111
125
134
134
145
152
145
134
120
111
118
101
55
32
37
25
9
11
13
-11
-43
-48
-34
-23
-13
-30
-71
-74
-32
-20
-46
-60
-60
-67
-64
-53
-62
-71
-62
-50
-50
-48
-34
-34
-74
-94
-62
-27
-37
-55
-39
-13
-11
-13
-23
-32
-18
9
20
11
2
6
55
224
541
812
669
171
-108
-23
34
-16
-9
13
9
11
13
6
9
13
20
30
41
53
57
57
62
81
97
85
50
46
74
94
99
106
104
101
106
108
101
87
53
30
25
18
18
9
-11
-13
-13
-41
-50
-32
-27
-23
-13
-18
-20
-18
-27
-34
-23
-18
-20
-23
-30
-25
-16
-13
-13
-18
-18
-9
2
9
11
6
6
9
2
2
11
4
2
16
32
48
64
67
62
60
69
83
78
55
48
62
76
83
76
62
60
94
252
592
921
854
338
-53
4
83
-6
-23
23
18
0
-25
-71
-81
-53
-39
-34
-30
-23
-4
6
6
20
37
41
46
48
55
71
83
90
97
94
87
74
37
-6
-23
-43
-74
-81
-85
-101
-108
-111
-108
-104
-99
-99
-90
-76
-69
-62
-53
-48
-48
-39
-20
-16
-20
-11
2
2
4
9
9
18
23
20
30
25
11
23
37
32
39
41
18
11
32
39
20
-6
-23
-4
11
11
25
46
55
57
55
62
62
55
53
60
71
76
69
64
60
48
83
256
597
893
766
250
-53
23
53
-18
9
53
37
25
32
25
20
27
34
34
32
32
46
62
67
67
76
87
97
113
122
99
81
90
94
90
92
81
55
37
6
-30
-53
-90
-131
-125
-104
-101
-97
-97
-97
-78
-60
-46
-39
-39
-41
-34
-20
-2
2
-6
-9
-9
-16
-4
6
0
-2
13
23
23
27
27
25
37
50
48
43
43
46
53
62
71
69
57
60
74
81
83
83
76
85
113
120
106
85
74
74
78
81
81
67
50
50
43
13
2
23
131
444
847
916
430
-85
-101
16
-60
-94
-74
-129
-162
-134
-118
-127
-145
-175
-189
-178
-159
-150
-145
-134
-122
-111
-90
-69
-62
-50
-27
-9
9
18
16
16
13
9
6
2
-16
-34
-50
-53
-46
-48
-53
-50
-48
-46
-48
-62
-67
-60
-53
-48
-43
-41
-46
-41
-34
-32
-48
-67
-60
-50
-50
-43
-30
-25
-23
-9
-2
4
13
20
25
37
39
39
32
4
-20
-23
-16
-18
-23
-20
-11
-4
-2
2
11
16
34
62
69
60
62
64
53
41
25
13
16
18
13
20
23
18
74
298
678
909
632
67
-138
-9
-4
-71
-34
-9
-32
-23
4
11
11
9
-2
-4
16
32
37
41
43
57
83
94
97
111
127
143
157
166
171
175
169
155
152
145
118
69
32
34
43
34
27
32
37
46
57
67
69
69
74
83
92
101
106
97
97
113
120
115
111
111
113
108
90
74
62
55
60
67
71
76
69
62
74
85
83
81
62
27
4
2
2
-9
-46
-69
-53
-39
-37
-30
-37
-41
-25
-2
18
32
20
2
6
23
23
9
0
4
18
32
37
30
20
53
213
539
849
773
284
-57
0
57
-20
-43
-34
-48
-39
-11
-4
-6
0
6
9
6
11
20
23
37
60
67
74
87
94
104
122
138
143
141
138
125
106
104
101
83
67
62
57
53
48
39
41
48
53
62
67
55
50
62
60
46
41
48
50
50
60
62
53
48
55
62
64
62
55
46
37
34
23
9
9
11
6
9
16
16
16
18
13
0
-4
-23
-55
-50
-30
-27
-20
-16
-18
-6
13
30
46
43
43
48
30
-4
-13
-2
9
13
18
20
27
30
85
280
599
821
620
122
-94
9
25
-32
-9
9
0
11
23
27
27
32
43
55
60
67
71
78
87
101
106
111
120
131
148
162
164
169
173
171
169
157
136
108
57
25
25
18
0
-20
-50
-55
-39
-37
-46
-53
-50
-39
-25
-27
-55
-71
-67
-57
-46
-39
-46
-55
-64
-78
-74
-48
-57
-94
-104
-90
-101
-120
-120
-106
-87
-81
-81
-71
-74
-85
-87
-83
-76
-71
-78
-83
-69
-55
-50
-53
-55
-37
-9
-11
-32
-37
-43
-53
-39
-30
-39
-30
-20
-16
-6
-9
50
291
629
764
479
23
-118
-25
-34
-62
-11
18
4
-2
-4
-13
-16
2
43
71
55
46
69
74
67
87
115
111
101
129
164
155
143
185
208
175
173
194
166
150
171
150
97
85
106
104
87
94
87
78
97
97
81
92
99
78
69
74
62
48
62
76
60
50
71
67
48
41
18
6
30
27
9
9
18
25
27
27
23
-2
-13
16
27
-2
-30
-32
-30
-30
-27
-25
-20
-9
2
16
32
27
13
16
23
25
32
46
50
39
32
34
48
120
356
736
912
597
97
-39
57
25
-20
13
11
-39
-37
-2
-23
-62
-50
-23
-18
-9
2
2
2
18
41
57
71
83
90
108
136
150
148
155
157
157
157
129
78
67
48
-9
-20
-2
-30
-62
-53
-34
-30
-23
-6
0
-16
-27
-13
11
18
2
-4
11
37
41
16
9
20
20
30
46
34
0
-9
-4
0
0
0
0
-9
-27
-32
-18
-13
-13
16
50
50
39
37
41
37
27
32
46
48
46
46
41
53
85
203
488
798
754
287
-76
-60
-4
-48
-32
2
-25
-48
-23
0
-2
4
20
-4
-48
-27
20
16
0
4
20
46
69
81
87
99
113
127
134
145
152
150
145
143
120
94
83
62
46
43
43
37
27
27
39
50
55
67
81
81
74
83
94
104
101
85
83
97
101
101
99
92
94
97
85
74
53
23
27
43
30
13
6
9
20
20
20
34
34
23
20
13
2
4
-2
-25
-27
-16
-13
-25
-60
-85
-83
-67
23
277
611
722
372
-101
-178
-64
-120
-173
-120
-92
-104
-92
-71
-67
-57
-39
-27
-23
-18
-6
9
18
27
43
53
62
81
108
120
120
129
145
148
150
155
143
104
74
60
39
18
13
13
6
4
16
25
25
27
41
50
55
57
62
71
74
71
78
83
83
85
92
94
78
41
25
37
34
30
46
46
25
25
34
53
71
76
69
62
50
41
34
25
30
37
32
34
39
32
39
125
384
747
886
513
-11
-115
-9
-64
-111
-78
-104
-143
-131
-115
-118
-113
-99
-90
-83
-76
-67
-60
-46
-30
-18
-6
0
11
30
55
67
69
85
99
99
101
106
90
64
50
43
30
20
16
2
-2
16
20
6
-16
-34
-25
-6
-2
4
2
2
13
25
37
37
34
41
50
55
57
53
48
53
60
69
74
74
83
104
99
69
55
53
39
34
43
50
53
53
50
55
60
64
122
342
687
831
474
-25
-120
-25
-76
-104
-60
-62
-71
-57
-55
-48
-32
-30
-32
-34
-43
-48
-43
-48
-67
-67
-48
-39
-30
-18
-37
-67
-60
-39
-39
-37
-37
-48
-57
-60
-74
-92
-106
-122
-122
-115
-115
-118
-113
-104
-108
-122
-136
-150
-155
-141
-129
-122
-115
-111
-101
-90
-81
-64
-50
-48
-53
-48
-32
-16
-11
-6
-4
2
13
23
32
37
32
32
53
78
92
87
81
87
87
76
69
76
83
85
94
101
94
85
111
243
546
882
852
354
-53
-20
50
-16
-16
16
4
9
30
32
27
25
23
13
16
18
2
-9
2
13
23
48
60
64
78
85
83
83
74
64
71
64
48
43
32
16
6
-2
-9
-16
-16
-13
-13
-11
-6
-13
-16
2
16
11
16
25
27
32
37
37
43
53
50
55
64
64
64
67
67
74
83
81
83
87
87
97
99
85
76
74
92
99
50
67
90
-46
-108
-13
-13
-90
-108
-101
-87
-76
-83
-57
78
368
708
782
382
-60
-90
-50
-94
0
53
-55
-115
-6
74
-67
-150
-37
-13
-101
-74
13
-6
-55
-6
48
27
0
6
43
67
62
64
46
-9
-43
2
67
37
-46
-57
-6
9
-64
-143
-69
18
-74
-99
-2
-92
-199
-101
-71
-122
-87
-90
-134
-104
-108
-152
-69
-32
-141
-104
74
74
-162
-206
43
57
-76
-11
39
2
34
60
-6
-16
53
50
11
25
41
30
50
87
85
43
-9
-37
0
30
37
69
62
48
90
189
393
599
534
224
43
64
64
53
60
23
30
57
27
13
27
20
13
-25
-57
18
104
92
69
50
13
11
30
39
69
92
37
-20
-6
6
9
0
-13
16
39
4
-43
-60
-39
-9
-48
-60
2
-64
-97
25
32
-27
6
27
9
16
41
53
50
53
64
67
55
55
71
76
85
104
83
67
87
87
64
71
92
85
60
34
6
2
25
46
41
32
39
41
27
30
37
16
4
20
46
48
64
201
493
733
615
196
-57
-37
-18
-55
-34
-2
-18
-11
23
18
-9
-18
-16
-11
0
11
23
30
27
20
41
74
76
74
78
81
83
76
64
69
71
62
62
57
37
30
20
-2
4
18
6
0
4
-2
0
11
9
9
27
37
32
41
48
34
16
2
13
34
32
20
23
37
39
39
43
41
46
57
67
71
67
39
16
30
48
37
6
-2
11
25
23
23
27
18
6
30
134
400
750
835
446
-9
-57
50
-2
-43
6
25
18
16
2
-6
11
20
25
32
23
9
18
41
50
46
46
62
76
71
74
83
69
43
18
11
18
9
-9
-11
-9
-16
-27
-48
-57
-46
-41
-43
-37
-39
-50
-34
-11
-20
-30
-23
-32
-30
-4
6
-11
-46
-64
-53
-37
-30
-32
-25
-6
-4
-13
-11
6
18
25
37
46
53
41
2
-20
-13
2
9
9
2
-4
-2
6
37
141
400
729
780
370
-71
-94
11
-30
-62
-46
-57
-69
-57
-48
-48
-43
-41
-41
-27
-30
-46
-37
-23
-30
-34
-27
-20
-20
-13
-2
6
11
9
11
9
-9
-20
-34
-60
-78
-90
-106
-113
-108
-108
-120
-143
-159
-145
-129
-122
-115
-104
-81
-55
-50
-46
-30
-30
-32
-9
6
-4
-2
16
23
23
27
43
67
87
101
108
106
83
55
53
57
64
83
90
74
67
87
97
118
252
520
780
759
340
-50
-30
85
39
23
69
83
83
97
104
108
115
111
111
113
113
125
136
141
150
152
150
155
178
187
157
127
143
162
143
125
120
118
115
94
64
50
50
41
27
20
27
20
-9
-9
16
16
16
13
0
4
16
13
11
13
23
43
43
25
32
48
48
43
55
74
81
67
50
60
69
62
57
69
64
50
76
108
83
32
83
305
606
710
400
-43
-145
-25
-4
-16
4
2
-6
9
27
27
18
-2
-9
16
39
30
6
-9
-9
2
11
20
41
60
62
71
101
113
94
69
57
60
53
32
13
6
-4
-20
-18
-20
-39
-41
-39
-48
-43
-27
-27
-25
-11
0
2
2
0
-9
-11
-6
-16
-27
-30
-27
-30
-27
-20
-13
-6
-2
2
13
20
11
0
-2
4
6
-6
-16
-6
0
-9
-6
39
189
502
824
759
236
-166
-113
-34
-104
-85
-39
-62
-67
-55
-74
-78
-55
-55
-57
-41
-30
-18
0
6
2
-4
2
25
43
53
69
92
108
111
111
122
125
99
78
69
55
43
39
32
34
41
39
37
43
50
55
69
62
37
39
55
46
30
23
16
20
34
37
30
37
43
48
43
30
25
20
0
-4
4
-4
-23
-37
-50
-48
-53
-69
-69
-60
-50
-41
-43
-57
-60
-53
-50
-48
-41
-37
-27
43
277
648
858
544
-60
-243
-76
-78
-150
-101
-69
-87
-74
-50
-48
-39
-25
-18
-4
6
13
23
27
34
43
46
55
64
67
83
115
134
136
129
127
134
136
125
101
76
60
50
55
64
60
46
43
60
62
34
-9
-46
-71
-67
-46
-41
-41
-34
-39
-41
-25
-9
-13
-20
-25
-25
-20
-20
-34
-41
-34
-25
-23
-16
-13
-23
-20
-4
4
11
13
6
11
23
27
32
41
32
30
48
53
50
60
57
55
67
78
74
53
41
64
81
76
74
76
74
120
314
692
1041
896
247
-101
53
94
-25
-23
2
-16
-2
32
37
25
25
32
39
46
50
57
60
64
81
87
71
48
60
90
106
108
104
99
108
120
120
101
85
74
48
27
32
37
25
25
34
20
-6
-11
-20
-32
-32
-25
-25
-25
-23
-2
13
9
6
13
11
13
27
30
25
34
39
39
46
53
46
48
41
9
9
41
34
13
9
-2
-20
9
55
4
-48
-11
6
-16
-23
-2
30
27
-2
-9
11
34
16
0
27
30
23
18
4
41
64
32
48
74
23
-13
43
125
247
555
923
870
314
-76
-4
53
-48
-46
25
-2
-27
16
18
11
46
48
23
30
30
20
30
9
9
25
-25
-32
32
20
-9
32
62
57
55
55
39
57
94
67
23
2
-11
0
13
18
18
6
13
16
9
32
41
0
-34
-34
-6
43
43
11
18
32
18
11
23
25
20
32
48
39
25
41
55
43
55
74
55
43
69
76
62
76
78
57
78
101
87
85
99
85
48
30
25
11
-4
9
25
25
50
74
53
41
67
69
37
25
6
-30
-11
16
-13
-20
27
94
305
678
856
525
34
-74
18
-18
-62
-43
-34
-20
-23
-43
-37
-43
-71
-67
-46
-32
-34
-34
-4
13
13
34
50
39
46
94
127
118
115
127
125
120
136
120
74
43
25
2
-20
-46
-62
-67
-64
-48
-34
-30
-23
-18
-16
-6
13
23
9
11
27
32
32
32
23
16
9
-2
-4
0
2
9
4
-2
-4
-9
-6
-13
-37
-46
-46
-62
-87
-99
-101
-104
-106
-127
-166
-175
-166
-164
-164
-159
-143
-134
-136
-129
-113
-97
-81
-62
-57
-60
-46
-34
-48
-60
-43
-30
-41
-69
-74
-55
-41
30
280
629
759
446
20
-64
16
-23
-53
-11
0
-2
11
18
27
39
39
46
60
64
71
85
99
99
106
120
118
111
122
138
150
159
166
166
169
178
175
162
159
159
136
97
43
9
13
13
4
4
6
11
37
46
34
39
50
53
55
53
39
23
-4
-30
-23
-13
-20
-25
-20
-11
-6
-2
-2
-6
-6
6
20
20
20
32
37
34
46
53
41
39
53
71
87
81
60
62
69
69
85
97
83
74
85
92
85
87
83
71
74
83
87
76
46
94
358
724
826
451
4
-34
60
0
-23
18
9
-4
18
27
9
-23
-60
-67
-60
-64
-55
-39
-41
-37
-11
9
18
25
39
57
71
87
108
106
94
106
115
106
92
81
71
57
39
25
20
13
-6
-20
-6
6
9
11
9
13
27
39
34
16
4
11
9
2
-2
-9
-18
-16
-11
-9
2
6
2
4
16
18
11
11
20
18
9
4
4
6
18
27
9
-27
-60
-69
-55
-48
-37
-18
-2
16
23
25
37
46
39
30
34
46
57
57
50
50
62
81
157
386
706
808
469
41
-25
64
27
4
34
34
34
50
48
48
69
81
74
76
87
92
94
97
101
120
136
138
141
155
166
169
173
178
175
157
145
138
145
150
122
87
53
23
23
25
13
4
-16
-43
-37
-16
-13
-13
-11
-9
2
11
11
11
13
20
30
25
6
-2
-16
-39
-43
-34
-37
-41
-39
-34
-32
-32
-34
-53
-81
-76
-57
-55
-57
-53
-48
-48
-39
-18
-6
4
16
11
11
20
20
6
-2
-2
-4
-13
-16
-18
-25
-11
76
328
683
789
402
-76
-129
-25
-94
-134
-81
-74
-92
-76
-92
-141
-141
-106
-99
-101
-104
-104
-85
-64
-57
-50
-48
-48
-32
-11
4
20
27
34
53
71
78
78
62
50
55
48
37
37
30
20
30
43
48
50
48
55
74
87
92
90
85
87
81
62
55
50
46
57
64
64
67
60
46
34
23
25
30
11
2
6
0
-2
13
11
0
6
16
23
25
20
18
37
69
81
69
60
55
50
46
43
30
-2
-9
11
18
11
30
129
400
743
805
423
2
-39
46
6
-6
30
23
13
30
43
50
57
57
60
67
60
57
62
71
87
94
97
111
127
131
143
145
125
122
138
138
134
136
129
113
92
78
74
71
64
60
57
62
62
64
76
78
67
60
71
78
76
64
32
13
30
37
32
23
-2
-16
-4
2
-2
-6
-16
-13
0
2
0
6
13
18
25
27
27
32
37
32
9
-9
-4
0
4
13
11
2
6
0
-16
-6
6
-11
-41
-50
-39
-32
-4
145
474
777
683
208
-99
-41
-2
-67
-50
-9
-16
-23
-25
-32
-18
-2
2
4
11
25
43
55
62
64
64
71
90
118
131
125
99
78
92
108
104
99
101
97
85
78
69
53
39
34
27
20
25
25
25
39
53
57
67
69
64
74
85
87
90
67
46
55
69
69
74
71
64
76
85
83
87
87
71
64
71
67
43
30
37
43
46
57
57
46
53
67
67
60
50
43
46
53
50
41
39
32
20
18
18
25
32
20
11
18
30
85
275
592
766
481
-4
-138
-43
-74
-115
-76
-57
-64
-60
-53
-41
-32
-18
-4
-9
-34
-41
-20
-6
-2
6
13
18
41
62
50
20
23
48
55
48
41
34
32
30
25
16
6
-2
-6
-2
9
13
9
11
25
32
43
53
55
55
57
62
76
85
81
78
87
90
90
97
87
69
62
64
64
43
16
16
25
27
27
18
9
13
13
13
30
32
25
25
9
-13
-6
2
0
4
13
25
25
-2
-11
-2
-11
-37
-48
-48
-46
-32
-20
-25
-32
-11
94
375
722
764
344
-64
-67
16
-48
-64
-30
-32
-27
-6
-6
0
11
16
18
27
37
43
48
43
37
43
62
76
83
92
113
127
127
113
76
50
67
81
67
48
37
27
27
23
-6
-37
-37
-23
-11
-4
0
6
13
23
34
30
13
16
27
34
43
55
53
48
60
67
64
74
76
67
69
81
78
67
55
50
57
67
71
71
64
57
69
81
78
78
76
60
46
41
39
30
20
18
39
57
57
50
43
32
25
32
39
20
-16
-43
-39
-27
-20
18
182
504
768
597
101
-145
-99
-111
-152
-120
-115
-136
-120
-101
-94
-76
-53
-53
-50
-32
-20
-9
9
11
11
27
50
62
76
94
99
104
134
148
141
136
134
131
129
127
111
85
62
55
60
62
60
53
55
67
78
81
76
76
78
85
92
97
99
101
97
97
101
104
106
81
41
39
53
41
11
-16
-16
-13
-27
-25
-13
-18
-16
0
0
-11
-18
-25
-32
-30
-20
-20
-25
-25
-18
-4
16
30
34
34
30
27
30
25
20
25
34
34
41
41
25
41
182
495
805
745
275
-64
-16
41
-23
-23
11
4
-2
16
27
27
34
41
46
55
64
67
67
50
34
46
67
67
76
94
85
85
108
115
108
118
122
108
74
32
23
25
2
-11
-11
-13
-11
-2
4
13
18
20
34
43
46
50
55
57
67
76
62
41
30
32
37
41
41
39
30
30
39
43
37
11
-25
-34
-27
-32
-48
-60
-55
-48
-37
-30
-34
-39
-37
-27
-27
-53
-71
-60
-43
-25
-11
-23
-32
-27
-18
-18
-13
-9
-11
-6
4
11
11
16
48
210
546
791
569
71
-122
-27
-30
-74
-37
-18
-37
-27
-6
2
11
23
13
4
20
43
55
60
57
62
85
104
111
122
129
136
155
173
180
175
169
169
173
164
148
129
106
90
87
87
74
43
25
27
25
23
32
32
34
43
57
64
62
48
41
43
53
57
55
57
48
46
60
67
60
53
50
48
41
39
20
-30
-53
-37
-32
-41
-50
-57
-55
-46
-39
-34
-30
-27
-25
-18
-9
2
18
34
30
25
39
50
32
16
18
30
39
46
43
32
30
64
206
511
810
740
266
-87
-48
11
-60
-60
-25
-27
-18
0
-2
0
11
20
25
27
34
48
57
64
74
81
85
104
115
125
136
145
152
162
162
155
129
62
11
11
6
-11
-27
-76
-113
-99
-85
-85
-74
-62
-57
-43
-27
-20
-16
-9
-4
-9
-11
-6
-2
0
6
16
16
11
16
16
-4
-23
-18
-16
-34
-39
-37
-43
-48
-41
-39
-39
-27
-18
-20
-20
-16
-6
0
4
6
6
6
13
27
41
55
67
67
62
69
74
53
23
23
39
43
46
48
16
-23
11
166
469
782
726
236
-125
-74
-11
-83
-87
-50
-50
-43
-25
-30
-30
-9
4
13
23
23
16
20
20
13
6
11
20
34
60
83
97
97
97
115
131
131
129
113
94
92
92
81
67
50
43
53
62
67
71
67
71
85
90
85
67
50
43
53
62
67
64
55
53
62
71
74
71
57
50
57
55
46
18
-25
-37
-16
-13
-18
-18
-20
-18
-4
4
11
9
0
-6
-2
2
-18
-34
-9
16
9
9
25
20
2
2
16
25
27
25
25
30
37
90
287
627
852
627
134
-60
9
-34
-97
-53
-46
-76
-64
-46
-48
-39
-16
-4
-4
0
11
20
32
43
53
62
67
81
104
115
120
129
136
143
150
152
143
129
118
118
108
99
83
60
46
50
53
55
48
25
18
34
37
18
-2
-6
-4
-9
-9
-4
-4
-2
2
6
6
6
18
23
20
23
25
16
6
-2
-18
-41
-46
-39
-34
-30
-23
-18
-18
-18
-13
-6
-4
0
0
2
13
23
23
30
46
57
62
64
62
60
55
50
48
57
69
69
62
50
41
76
226
541
821
696
199
-134
-90
-34
-99
-92
-48
-55
-62
-41
-30
-23
-13
-6
2
4
13
32
46
53
60
64
71
83
87
85
97
113
115
125
141
145
141
127
115
111
104
87
64
48
48
53
50
53
55
50
48
60
74
74
64
48
46
55
55
55
53
37
34
48
53
46
39
37
41
39
9
-32
-71
-99
-99
-83
-81
-94
-129
-148
-129
-113
-113
-101
-97
-99
-81
-62
-57
-53
-53
-53
-50
-50
-39
-20
-16
-16
-4
16
20
2
-6
0
13
25
32
32
23
20
57
213
534
835
745
273
-39
13
53
-16
-9
23
13
23
41
27
13
25
37
43
55
60
57
69
83
78
55
48
62
78
97
113
120
122
129
141
155
152
118
71
53
50
37
27
23
9
-4
-11
-11
-4
4
6
9
16
16
9
13
18
16
18
30
32
30
34
34
32
39
43
39
27
11
9
4
-11
-18
-16
-9
-6
-11
-20
-23
-18
-11
-6
-2
0
4
9
4
6
23
9
-18
-13
6
30
46
43
37
46
55
50
34
30
41
46
43
50
27
-13
16
180
486
754
643
169
-118
-43
-2
-69
-57
-18
-20
-18
-2
0
2
6
18
27
34
37
43
53
64
76
78
83
94
111
122
136
143
131
122
134
150
148
134
122
108
94
78
57
48
46
27
4
4
16
11
-6
-27
-30
-23
-25
-27
-25
-18
-9
-4
0
2
2
0
-13
-16
-4
-18
-62
-90
-81
-78
-87
-90
-87
-81
-71
-64
-60
-60
-57
-43
-34
-32
-25
-20
-20
-11
-2
4
6
-2
-6
13
41
57
48
23
18
39
39
27
32
32
30
43
53
57
50
48
113
347
703
863
530
25
-81
30
-4
-43
-4
-6
-13
13
25
23
30
27
16
13
32
48
41
37
50
69
85
97
99
104
125
143
155
162
162
159
159
162
162
138
85
43
37
37
27
25
23
16
18
27
18
-6
-16
0
4
4
11
16
13
18
25
34
46
43
34
27
-2
-27
-27
-32
-48
-48
-37
-34
-30
-27
-32
-32
-23
-9
-6
-13
-23
-30
-23
-13
-9
-9
-4
2
13
20
16
16
32
53
67
71
64
64
69
60
53
60
60
53
57
67
64
53
50
169
502
819
715
206
-136
-74
-16
-87
-78
-50
-99
-113
-76
-67
-69
-50
-46
-39
-18
-20
-41
-43
-27
-13
-4
11
34
50
60
78
94
104
118
129
127
118
108
99
90
81
69
62
50
34
30
30
32
46
50
32
23
30
41
55
55
48
53
55
55
62
69
62
60
64
60
41
16
-4
-32
-64
-64
-41
-53
-76
-64
-43
-39
-27
-18
-27
-34
-25
-6
18
20
-13
-37
-18
-2
-2
13
23
4
-4
9
18
20
20
20
11
6
41
166
444
747
731
303
-55
-32
30
-30
-25
20
16
0
6
20
20
20
37
57
55
46
57
83
92
83
76
83
104
108
106
113
118
120
136
155
162
152
131
115
111
104
92
64
0
-27
0
6
0
-2
-16
-20
6
13
4
13
13
11
25
25
23
20
6
0
13
13
9
4
2
6
20
27
20
18
9
-2
-6
-18
-27
-27
-32
-20
2
18
13
4
4
2
-13
-20
-27
-60
-78
-67
-71
-85
-78
-43
81
382
710
678
226
-134
-108
-37
-85
-81
-53
-71
-74
-41
-34
-46
-69
-92
-99
-106
-106
-87
-76
-74
-74
-53
-30
-25
-23
-9
11
27
37
34
23
32
37
34
39
20
-6
-18
-30
-37
-37
-46
-50
-43
-41
-34
-18
0
16
11
6
34
60
53
50
57
46
32
41
57
64
67
69
71
78
85
87
74
48
53
81
87
99
125
118
97
108
111
78
60
53
43
20
-9
-16
-16
53
282
588
703
414
-18
-131
-41
-53
-71
-34
-27
-34
-27
-23
-6
16
25
37
46
46
50
55
64
78
87
99
115
138
159
162
155
173
194
185
166
171
169
148
145
136
113
101
87
74
81
92
83
74
78
81
94
115
120
104
104
118
125
127
115
81
67
87
94
83
85
74
48
50
69
67
57
41
30
37
41
43
48
37
20
25
41
53
41
0
-25
-13
0
57
270
634
863
601
50
-148
-34
-41
-104
-81
-76
-83
-57
-50
-64
-46
-30
-34
-43
-55
-62
-55
-39
-32
-37
-37
-18
4
20
30
37
48
60
67
78
92
76
30
-2
-6
-13
-37
-53
-48
-50
-60
-39
-25
-34
-32
-23
-18
-4
13
16
13
20
34
41
18
-23
-18
16
23
16
18
18
16
23
39
43
41
46
30
13
32
64
71
62
60
67
76
76
62
60
67
71
81
87
78
67
104
289
650
946
801
263
-46
37
69
-4
0
4
-30
-23
-13
-25
-20
-6
-2
0
9
13
2
-4
6
23
32
37
48
60
67
85
111
106
101
125
127
90
55
13
-34
-55
-67
-81
-85
-92
-104
-101
-94
-94
-97
-92
-81
-76
-74
-60
-50
-46
-34
-25
-25
-20
-16
-6
4
9
13
20
20
30
39
34
32
39
46
41
30
9
-11
-11
2
4
6
18
23
18
18
30
57
81
69
37
16
18
18
13
18
23
25
32
39
39
32
55
182
479
812
814
354
-87
-113
-41
-97
-101
-62
-74
-83
-55
-37
-37
-39
-43
-39
-16
-9
-27
-37
-34
-23
-11
0
9
11
13
25
41
53
53
46
46
32
-2
-48
-99
-129
-134
-134
-145
-152
-145
-143
-148
-131
-99
-83
-85
-83
-71
-57
-43
-25
-11
-13
-13
2
20
34
46
41
23
34
64
74
60
53
50
60
78
85
74
57
64
81
87
81
60
43
71
101
92
83
78
69
76
92
99
99
97
97
94
120
224
465
777
854
481
37
-34
34
-13
-27
16
16
11
32
41
37
43
53
60
69
74
60
48
64
90
94
85
85
97
122
141
143
145
152
162
164
152
125
90
64
39
18
9
2
-6
-16
-18
-11
-6
-9
-11
-11
0
9
-11
-34
-23
-9
-13
-9
0
0
4
11
13
18
20
23
30
27
11
0
-13
-27
-18
-4
-9
-18
-34
-37
-25
-23
-25
-16
-11
-4
16
34
48
55
57
62
55
41
46
57
64
71
74
67
62
94
250
590
923
835
291
-74
4
64
-16
-11
9
-20
-18
9
11
9
16
16
16
32
41
41
46
50
50
53
50
43
23
-9
-13
18
37
18
11
18
6
-20
-39
-55
-76
-71
-64
-74
-62
-60
-76
-74
-60
-43
-34
-41
-34
-18
9
34
30
20
18
23
32
50
62
46
37
53
55
53
71
78
69
76
83
85
87
81
74
85
108
111
101
106
111
104
106
115
120
118
108
104
115
136
138
138
159
152
120
101
92
71
55
41
34
43
20
-34
-11
178
507
805
710
182
-155
-67
-16
-104
-113
-92
-106
-101
-71
-62
-76
-71
-46
-41
-46
-32
-25
-32
-23
-4
6
20
27
34
55
71
83
104
111
101
108
122
127
125
104
74
55
48
57
62
50
43
50
60
64
43
4
-11
-2
4
13
20
25
23
9
6
6
9
23
30
27
32
34
6
-20
-6
16
16
18
30
32
27
46
64
60
62
71
62
57
57
39
25
46
62
60
71
83
67
46
60
78
71
60
53
50
48
69
199
493
759
648
185
-101
-34
13
-41
-32
-4
-9
-6
0
2
-9
-18
0
13
9
16
32
23
-2
-4
16
34
39
43
67
94
97
106
136
136
115
92
64
55
57
39
11
4
4
2
4
4
-9
-18
-4
13
18
20
27
34
48
55
53
55
64
64
67
76
81
81
81
78
83
92
87
87
92
90
92
101
111
118
111
94
85
76
90
104
90
74
74
78
87
83
55
41
50
60
60
53
39
32
43
57
46
23
9
0
0
78
326
673
805
463
-43
-173
-74
-118
-166
-118
-99
-108
-92
-87
-92
-71
-46
-46
-41
-27
-23
-13
4
13
4
-25
-32
-2
16
27
53
64
69
87
104
106
99
81
55
34
27
30
18
-2
0
27
34
25
25
11
0
13
27
32
37
34
34
46
62
74
69
57
62
78
90
94
85
78
90
99
85
69
67
64
67
78
78
48
4
-9
4
6
13
25
9
2
20
25
23
34
55
60
48
37
30
13
4
4
0
-4
2
6
-2
-13
-13
-11
27
187
516
814
703
213
-97
-37
-16
-113
-104
-50
-64
-69
-39
-32
-37
-16
-2
-11
-6
6
16
32
48
50
50
60
67
67
81
97
99
111
129
138
134
131
129
125
118
108
94
78
67
60
62
53
20
2
16
25
27
34
39
46
60
62
62
71
71
60
57
64
69
71
74
71
76
90
92
78
67
67
41
11
11
20
25
32
30
30
43
43
34
48
62
46
25
20
18
9
0
-2
2
11
9
6
13
16
2
-4
4
4
0
0
-23
-57
-60
-6
141
432
715
639
187
-122
-64
-16
-108
-131
-87
-81
-85
-60
-48
-57
-48
-25
-16
-16
-13
-2
13
27
41
48
50
64
87
106
94
69
83
106
104
108
125
115
99
104
97
81
69
60
48
48
48
34
34
43
46
50
62
71
76
71
71
83
90
97
106
108
104
99
97
111
122
101
71
69
81
94
90
81
85
81
62
74
83
57
57
74
74
64
34
-6
-18
-6
9
23
13
-11
-16
6
18
-9
-43
-50
-34
-20
-16
-18
-34
-30
46
243
578
826
620
101
-134
-55
-37
-81
-76
-67
-50
-23
-25
-18
9
-9
-27
27
76
53
16
0
-4
25
53
67
106
111
64
94
155
127
120
157
134
108
129
127
74
39
67
94
62
13
32
64
43
41
62
20
-53
-48
16
37
18
20
23
2
13
37
18
-2
11
18
27
46
30
-25
-37
-11
-6
-6
-30
-69
-57
-25
-25
-60
-64
-39
-62
-64
-30
-46
-71
-53
-34
-46
-32
16
-4
-46
-6
13
-20
-25
-11
-13
-9
0
-13
-16
4
20
111
384
708
724
326
-34
-20
46
-27
-41
4
4
-11
-11
-23
-39
-46
-60
-78
-69
-53
-83
-90
-50
-32
-23
-20
-30
-2
23
23
23
34
64
74
64
81
106
90
62
60
64
57
50
32
11
16
46
60
41
32
50
69
74
71
74
76
76
92
113
101
55
37
69
97
71
39
41
50
50
62
69
53
64
74
46
48
78
74
69
71
37
0
-9
-18
-55
-78
-48
-23
-34
-32
-25
-53
-69
-48
-41
-46
-37
-34
-37
-23
-9
16
145
453
740
639
194
-81
-37
0
-39
-20
13
2
-11
2
25
37
43
43
41
48
67
81
69
48
48
74
92
101
127
134
111
120
166
187
164
145
155
162
157
150
141
120
97
85
71
48
37
34
37
39
41
53
60
55
43
48
60
53
18
-9
-2
13
18
11
-13
-43
-43
-27
-23
-34
-71
-94
-83
-71
-74
-74
-74
-69
-53
-37
-23
-30
-39
-25
-23
-57
-92
-104
-104
-113
-125
-120
-113
-122
-101
27
312
611
574
134
-208
-175
-122
-180
-164
-129
-143
-138
-113
-101
-108
-118
-113
-87
-76
-71
-60
-48
-46
-46
-34
-13
4
18
32
53
76
92
94
90
99
113
115
106
69
20
9
18
18
16
16
6
4
11
25
50
55
50
64
76
69
62
67
64
67
83
90
85
83
92
106
113
104
94
104
115
113
113
118
111
113
134
138
125
125
134
118
97
111
125
111
97
97
85
78
76
67
64
71
76
78
76
62
57
113
317
662
872
613
90
-104
-2
-4
-67
-81
-113
-125
-85
-71
-74
-67
-71
-69
-39
-34
-53
-50
-41
-39
-13
16
20
25
46
64
81
94
104
104
111
118
120
118
85
30
2
11
11
4
4
0
-11
-23
-25
-18
-4
-6
-16
-6
11
16
16
20
23
39
55
60
62
55
50
64
76
76
76
78
78
85
101
97
78
78
97
99
99
111
111
97
87
94
94
76
60
48
37
32
39
34
11
2
13
20
20
20
23
20
16
53
224
544
798
678
206
-111
-64
-30
-106
-99
-62
-85
-113
-111
-111
-101
-87
-78
-69
-57
-50
-46
-41
-27
-4
13
18
18
37
64
83
83
85
106
115
108
113
115
97
83
76
71
62
43
34
37
27
16
23
27
27
32
46
50
18
-4
16
16
4
23
41
41
34
30
41
55
60
62
67
71
78
74
64
69
71
74
83
60
23
27
46
43
37
48
60
64
85
108
111
99
94
90
74
62
55
46
53
69
64
53
53
69
157
414
743
796
398
-16
-41
20
-64
-97
-60
-67
-78
-55
-41
-39
-43
-39
-32
-25
-20
-23
-46
-78
-62
-30
-34
-43
-50
-57
-41
-16
0
9
4
2
25
32
13
-9
-46
-87
-87
-74
-78
-90
-94
-90
-83
-78
-67
-57
-62
-50
-27
-27
-30
-25
-25
-27
-20
-16
-23
-23
-11
-11
-20
-18
-23
-37
-34
-30
-48
-55
-30
-27
-48
-39
-18
-11
-11
-9
-2
9
23
25
30
53
74
78
78
87
87
62
43
46
46
55
62
50
50
67
62
74
201
488
770
706
245
-111
-97
-69
-134
-120
-85
-106
-150
-166
-145
-125
-111
-92
-83
-83
-74
-62
-43
-23
-23
-23
-4
16
41
64
74
74
69
67
90
99
85
87
97
83
69
62
53
46
43
46
53
53
48
48
62
83
94
85
78
94
104
106
108
111
120
122
113
111
104
90
92
90
67
53
46
16
11
32
20
11
37
48
41
46
60
64
62
69
67
60
62
60
48
57
69
62
69
94
97
85
78
67
55
39
6
-13
-9
-16
-25
-32
-67
-97
-76
18
275
634
745
386
-69
-138
-39
-83
-111
-67
-62
-64
-39
-30
-37
-23
-9
-6
-11
-18
-16
2
9
-2
-13
-2
9
23
50
64
55
37
39
57
64
67
74
74
69
55
48
48
41
25
25
43
46
37
43
48
39
39
53
60
62
71
71
74
90
94
85
87
94
99
106
111
106
104
108
111
113
120
120
104
87
94
104
90
83
92
97
101
90
62
57
78
76
60
62
43
30
41
39
30
39
41
20
11
9
4
9
-18
-57
-50
-27
-18
25
166
458
733
615
155
-113
-55
-32
-92
-69
-27
-41
-55
-41
-23
-18
-13
2
16
18
30
46
53
53
57
74
83
83
106
136
136
131
152
173
171
159
155
152
150
131
101
78
69
62
57
62
60
39
18
20
37
53
64
60
48
57
83
90
81
76
83
85
81
85
97
94
81
76
74
69
62
53
37
32
46
41
2
-30
-20
-2
0
-9
-41
-76
-81
-74
-78
-92
-94
-78
-62
-57
-60
-60
-60
-62
-74
-85
-81
-64
-57
-62
-69
-87
-90
-30
178
520
733
497
2
-192
-101
-122
-199
-173
-152
-169
-157
-141
-143
-129
-104
-104
-106
-85
-67
-57
-50
-48
-30
-6
6
23
41
41
41
60
78
90
78
39
23
41
34
23
20
4
0
6
4
0
4
11
27
41
41
48
60
67
69
74
83
85
87
99
108
97
81
83
87
81
74
67
60
67
78
76
69
60
39
23
34
48
53
50
39
34
32
23
20
27
23
13
11
25
39
37
32
41
55
53
53
64
55
37
39
50
53
57
62
53
50
64
81
171
439
757
789
393
-32
-62
27
-37
-53
-2
-4
-13
6
13
13
16
11
18
20
9
23
46
53
67
78
78
92
106
113
113
97
94
113
122
125
118
83
53
55
50
39
30
9
2
23
37
34
23
11
16
34
43
46
48
53
57
60
67
76
71
57
50
53
62
69
67
57
57
64
67
69
69
64
57
60
64
48
2
-23
-11
-16
-30
-27
-34
-50
-39
-18
-13
-16
-18
-16
-2
13
39
55
27
-11
-4
16
9
-11
-11
6
18
18
20
23
27
43
145
430
773
791
368
-25
-30
43
-16
-37
2
9
6
20
25
30
37
34
39
57
64
60
64
71
81
101
111
106
115
134
148
155
157
162
159
143
134
131
108
71
57
43
25
25
23
13
18
25
23
23
32
43
30
4
6
20
23
23
30
27
20
18
16
16
18
23
25
13
-2
-6
-2
2
11
13
-2
-9
-4
-16
-30
-27
-25
-27
-20
-11
-16
-16
-9
-6
-6
4
18
30
39
41
34
37
41
37
16
2
4
20
20
13
16
27
67
222
523
750
576
113
-120
-55
-69
-152
-129
-92
-125
-148
-125
-104
-97
-83
-67
-67
-67
-50
-32
-20
-18
-25
-30
-18
2
23
39
37
41
60
74
76
78
74
64
57
55
46
27
11
-2
-9
-9
-9
-11
-13
-13
-9
0
4
-4
-16
-11
-9
-20
-20
-20
-34
-43
-34
-27
-27
-25
-23
-23
-11
4
6
2
-4
-2
13
16
2
-41
-104
-108
-74
-69
-71
-62
-64
-64
-46
-32
-39
-43
-30
-11
-2
-2
-2
-2
-11
-9
9
16
11
16
23
18
30
76
229
548
835
726
254
-27
34
50
-18
9
48
30
37
48
27
25
48
55
53
55
60
69
83
94
106
108
108
120
148
162
155
159
178
185
189
194
180
148
129
122
118
97
46
9
16
27
11
-6
2
11
13
30
43
46
46
50
57
67
71
69
55
50
53
57
67
67
60
60
62
62
62
64
64
64
60
55
50
41
20
4
4
9
-6
-41
-60
-50
-43
-46
-39
-34
-23
2
20
18
16
16
25
30
25
16
11
6
-4
-11
-6
-4
-11
32
233
571
808
615
118
-106
-11
-2
-67
-48
-57
-101
-81
-46
-53
-50
-27
-16
-9
-2
4
11
20
34
50
55
64
78
90
104
122
138
145
148
148
145
148
148
134
111
99
104
94
78
76
71
67
76
87
85
83
85
90
106
120
118
106
101
111
106
76
60
55
46
43
53
48
27
11
18
34
39
39
41
43
41
37
30
20
4
-25
-55
-57
-39
-37
-37
-34
-37
-34
-18
2
16
13
9
23
39
39
27
11
0
4
20
27
16
9
32
71
166
421
738
764
361
-23
-16
69
9
-18
11
20
20
39
41
34
46
60
55
34
20
23
37
39
34
41
46
50
69
90
106
120
120
111
122
136
138
138
127
108
99
92
83
69
55
50
50
50
55
41
4
-9
4
20
32
23
4
18
41
34
25
11
-23
-34
-23
-25
-32
-34
-37
-34
-30
-23
-16
-16
-23
-20
-13
-13
-20
-25
-32
-46
-57
-55
-62
-92
-99
-101
-129
-127
-92
-83
-94
-92
-81
-81
-92
-99
-99
-99
-99
-94
-94
-94
-97
-92
-30
178
525
740
497
6
-162
-60
-69
-122
-83
-57
-67
-64
-55
-48
-34
-23
-18
-25
-53
-50
-23
-13
-11
9
23
30
43
67
92
101
104
122
138
136
141
148
141
136
131
115
99
81
50
18
0
0
6
16
23
34
39
48
60
60
60
69
76
81
81
81
83
94
99
83
69
71
76
78
74
69
67
69
74
87
87
74
64
62
55
48
46
30
-11
-41
-27
-11
-16
-23
-20
0
25
34
39
32
25
23
20
23
30
32
30
34
37
37
46
97
275
604
831
625
143
-76
-2
2
-39
-4
13
-11
-2
23
30
37
48
48
48
60
74
85
78
41
25
50
74
81
92
104
118
138
150
148
131
113
125
136
122
115
115
92
69
64
67
78
76
55
55
71
78
78
60
30
34
55
57
60
62
62
78
90
76
57
48
46
37
9
-11
-16
-20
-11
-2
4
13
16
11
16
13
2
-2
-4
-9
0
13
16
13
13
11
-2
-4
9
11
6
13
18
11
11
55
226
530
738
551
106
-97
-18
2
-37
-20
0
-4
-6
11
32
34
41
48
48
50
60
69
83
90
90
99
108
115
127
118
85
74
85
97
87
57
48
55
55
46
27
6
6
16
11
0
6
23
25
23
37
55
55
48
67
81
71
74
87
83
81
90
85
71
64
64
71
74
64
67
76
67
62
60
55
53
50
62
67
53
48
64
67
64
87
108
90
74
62
41
25
25
13
4
2
-9
-20
-13
-11
13
169
483
766
655
145
-187
-141
-101
-157
-143
-122
-162
-182
-152
-131
-125
-118
-111
-97
-76
-64
-53
-46
-43
-27
-2
6
6
11
20
37
60
76
85
90
92
94
101
97
83
67
48
41
46
46
41
30
27
46
62
62
62
69
69
69
78
92
101
97
81
74
85
99
92
83
92
92
69
50
41
9
-6
4
18
30
16
-25
-34
-11
-4
-16
-34
-62
-69
-48
-23
-2
0
-13
-9
6
2
-16
-25
-37
-39
-32
-34
-41
-50
-60
-41
74
365
715
770
356
-87
-113
-9
-60
-87
-53
-48
-53
-30
-16
-23
-18
-4
6
18
30
34
25
23
41
64
69
67
81
99
113
104
87
92
106
115
120
115
104
87
74
64
60
46
4
-25
-13
-2
-2
11
25
20
13
16
18
20
27
34
48
50
48
60
71
67
71
81
76
74
85
92
90
90
97
101
99
94
101
106
111
111
108
108
111
113
106
97
101
111
106
101
87
39
4
18
32
25
25
16
-11
-25
-27
-16
67
298
611
683
319
-108
-155
-57
-92
-111
-85
-92
-120
-136
-134
-125
-134
-134
-125
-118
-101
-90
-85
-76
-76
-69
-39
-23
-27
-25
-11
6
20
25
32
34
30
30
27
20
2
-27
-50
-43
-34
-41
-48
-55
-55
-34
-16
-11
-4
2
-4
0
34
57
43
34
41
37
23
25
27
30
41
37
37
64
67
43
53
74
78
87
90
78
92
113
108
99
83
46
39
55
53
43
39
32
34
46
53
46
41
83
256
562
801
659
189
-83
-2
46
-11
-6
2
-30
-25
-4
-9
-16
-13
-16
-16
0
13
11
9
23
43
57
67
71
69
81
90
78
81
92
90
90
99
99
101
85
50
34
37
39
34
32
30
30
25
23
34
43
39
43
57
67
76
83
83
81
87
101
111
106
94
94
104
108
87
46
41
57
57
55
48
13
0
13
18
16
0
-27
-23
-2
-2
-6
-27
-64
-67
-39
-27
-30
-30
-39
-43
-30
23
215
571
808
553
6
-182
-55
-64
-131
-94
-74
-87
-87
-92
-101
-106
-101
-87
-78
-76
-64
-50
-43
-32
-20
-13
4
23
34
55
74
83
94
104
108
118
120
104
87
81
71
46
2
-20
-4
2
-9
-27
-64
-76
-57
-41
-32
-23
-18
-4
11
11
18
32
41
50
57
53
37
23
23
34
43
43
46
53
60
67
71
74
81
83
74
69
74
76
74
67
74
94
115
129
134
120
118
136
141
122
108
99
92
97
101
97
85
74
101
240
551
891
891
412
-25
0
87
-32
-101
-87
-104
-106
-85
-85
-87
-78
-64
-48
-37
-43
-39
-23
-13
-4
4
6
6
4
18
50
62
53
62
78
87
97
99
78
53
34
18
16
18
4
-4
4
11
27
39
34
30
43
53
57
67
67
60
71
87
90
90
87
83
90
99
99
83
48
32
46
53
41
32
23
23
34
48
53
50
39
37
50
57
57
32
-4
2
20
2
0
16
13
2
-6
-13
-27
-34
-39
-41
-39
-37
-41
-57
-76
-76
-67
-71
-78
-34
141
467
717
520
-13
-268
-159
-129
-199
-173
-143
-169
-159
-127
-122
-118
-99
-90
-81
-64
-48
-32
-30
-30
-16
0
2
9
25
32
39
62
85
99
106
115
113
99
97
99
85
69
60
55
53
34
2
-6
-13
-34
-34
-18
-9
-4
-9
-11
9
39
53
48
48
55
60
62
60
57
60
60
64
78
71
69
94
108
106
111
106
94
106
127
127
120
131
143
127
113
131
136
122
145
141
92
94
131
113
85
90
90
78
81
97
92
71
81
145
344
680
840
532
41
-97
20
27
-53
-78
-83
-111
-106
-92
-101
-76
-32
-39
-69
-60
-43
-43
-16
13
0
2
37
43
39
57
85
113
127
108
67
46
55
64
69
57
13
-11
11
37
25
0
-2
11
9
0
4
9
0
9
25
16
13
25
18
32
57
46
41
50
43
37
41
34
27
41
46
27
34
60
32
-18
-18
-6
-25
-32
-20
-39
-67
-50
-27
-41
-39
-13
-16
-30
-6
0
-46
-101
-113
-101
-111
-118
-97
-81
-85
-76
27
289
618
706
354
-78
-136
-30
-67
-106
-69
-57
-67
-53
-48
-50
-23
2
-4
-9
0
20
37
46
62
67
67
94
122
120
113
136
166
175
175
175
175
185
175
118
76
87
92
50
25
41
41
34
55
64
62
71
76
85
90
83
85
92
99
129
131
78
39
55
64
53
53
37
0
2
27
34
25
-23
-55
-34
-32
-41
-13
-4
4
60
46
-23
13
57
6
9
62
34
-20
-2
18
11
13
16
4
2
6
13
30
76
240
599
893
703
157
-138
-71
-27
-67
-62
-39
-39
-46
-41
-57
-53
11
2
-85
-90
-34
-18
-23
-18
2
27
27
20
50
62
32
27
48
57
74
87
83
60
34
20
23
23
-2
-11
2
13
23
11
0
23
48
37
30
55
74
78
78
78
76
74
78
85
97
113
118
106
101
104
113
99
69
67
83
92
76
30
32
85
90
67
83
85
55
64
90
90
85
97
113
106
83
78
78
46
27
41
55
48
37
23
-11
-34
-34
11
185
500
761
634
145
-120
-25
-11
-97
-67
-25
-37
-13
9
-6
0
23
23
6
11
37
55
64
67
74
90
94
92
111
127
125
104
85
101
127
129
122
106
85
94
111
87
55
50
60
57
55
57
60
57
67
83
81
71
69
76
99
111
113
120
108
81
76
69
53
94
131
81
57
99
101
60
18
9
46
76
57
53
57
34
20
27
34
71
113
92
57
60
62
46
30
37
74
85
32
-30
-69
-99
-78
122
463
652
449
-2
-243
-178
-148
-196
-150
-104
-141
-143
-108
-108
-87
-53
-55
-64
-50
-41
-39
-6
25
16
-2
6
41
60
46
57
94
97
87
113
138
127
115
101
76
76
76
43
23
11
-13
0
27
9
-2
30
57
39
23
60
85
74
87
85
43
41
71
78
69
46
23
34
34
20
41
69
69
64
62
53
55
81
78
74
99
101
87
97
99
90
83
97
136
131
99
99
94
60
46
64
78
67
69
90
81
53
55
159
460
805
796
331
-81
-74
2
-57
-53
-9
-43
-71
-53
-30
-16
-30
-60
-60
-39
-46
-64
-53
-27
-18
-18
-4
13
-11
-48
-25
27
57
69
69
57
62
81
83
62
43
27
18
27
32
20
2
-4
18
60
67
55
67
57
34
53
55
41
69
78
62
78
92
71
60
64
71
81
97
97
81
76
87
92
87
85
81
81
90
94
99
81
30
13
41
43
20
11
9
13
27
23
2
-20
-43
-37
-18
-13
-16
-34
-74
-62
64
333
634
648
231
-166
-162
-85
-152
-145
-83
-101
-129
-99
-76
-97
-118
-97
-43
-23
-43
-34
-9
0
2
9
20
27
37
50
62
90
143
138
92
92
129
122
92
90
90
67
48
48
37
32
39
25
4
11
30
20
16
39
64
71
57
23
9
32
48
25
-11
-27
-13
2
4
2
11
25
20
9
25
50
41
34
50
53
46
48
46
48
53
48
55
50
25
27
60
71
81
92
78
67
76
85
74
55
48
50
57
60
43
13
-2
46
194
490
817
794
307
-106
-85
-16
-101
-104
-39
-46
-62
-50
-55
-53
-53
-69
-64
-43
-41
-43
-39
-27
-11
-4
-18
-39
-25
4
6
20
50
60
53
60
64
60
48
39
25
18
18
2
-6
9
16
16
27
39
27
18
30
41
30
16
4
2
6
18
20
11
23
50
50
39
41
55
67
53
32
34
41
50
55
41
41
60
69
60
57
74
55
11
-2
9
13
18
27
41
46
43
48
50
53
60
37
-25
-53
-37
-25
-37
-64
-67
-50
-48
18
287
650
736
356
-87
-138
-39
-87
-118
-69
-64
-71
-50
-41
-48
-34
-18
-11
-4
-2
6
27
34
37
53
57
48
55
76
78
69
74
85
94
106
108
97
97
101
90
67
27
-4
-11
-2
6
9
16
18
20
39
67
53
32
53
57
41
60
76
50
30
43
62
55
48
43
6
-18
2
20
23
30
32
18
16
25
25
18
20
32
32
20
30
43
37
41
62
64
55
55
53
39
27
18
16
23
23
9
-9
-2
4
-6
2
23
9
9
69
226
509
720
518
60
-120
-23
-4
-48
-27
-9
-25
-27
-11
0
-9
-20
-27
-16
4
16
32
20
-4
25
46
34
50
57
23
27
60
53
46
48
11
-6
18
16
-2
-2
-9
-11
-16
-25
-16
2
-4
-16
-11
-6
2
11
16
20
20
25
39
43
43
60
55
43
55
55
30
16
25
25
16
11
13
25
25
16
11
16
25
37
37
13
-2
11
23
18
18
23
20
25
30
25
11
4
6
0
-4
2
13
6
-4
2
18
41
115
294
541
643
370
-37
-131
-39
-53
-87
-64
-55
-64
-57
-41
-23
-11
-9
-2
6
13
25
41
53
55
57
67
78
71
60
69
83
85
104
122
118
111
120
122
108
97
78
60
46
37
34
37
43
48
50
57
62
69
87
92
74
76
94
99
97
94
85
94
113
108
101
101
92
87
90
83
76
74
60
48
60
64
41
4
-6
18
34
27
27
18
-2
-13
-20
-27
-25
-30
-43
-39
-32
-53
-50
69
370
699
666
196
-166
-115
-43
-118
-136
-113
-148
-180
-159
-120
-106
-101
-99
-94
-83
-64
-46
-32
-25
-20
-6
9
32
46
48
55
74
92
101
104
104
106
111
106
87
76
64
39
27
34
34
37
53
50
32
39
60
32
-4
9
23
20
30
34
25
34
53
53
55
53
30
18
39
48
32
30
43
46
37
34
30
30
41
43
41
48
55
60
62
57
53
46
34
37
43
46
50
55
43
27
23
53
201
507
768
625
141
-129
-55
-20
-87
-92
-67
-64
-62
-48
-48
-46
-34
-23
-16
-16
-23
-11
18
27
23
11
-11
-9
16
25
34
55
69
53
27
41
50
23
23
50
23
-27
-32
-27
-30
-11
2
-16
-20
0
6
13
34
46
37
41
60
67
57
60
64
62
74
85
85
85
85
81
87
101
99
85
83
78
69
85
125
138
113
104
118
122
118
106
85
78
92
111
113
87
62
83
189
423
703
729
326
-90
-99
-11
-78
-118
-118
-145
-145
-131
-150
-164
-143
-131
-136
-122
-106
-106
-97
-76
-76
-74
-37
-9
-13
-2
25
39
50
53
41
39
57
76
60
34
25
16
34
69
41
-11
11
50
6
-41
-9
30
41
60
64
55
64
67
64
78
78
53
48
67
78
78
71
78
83
83
85
78
87
108
92
46
18
43
57
27
9
13
23
37
50
50
11
-41
0
222
581
808
557
30
-157
-27
-25
-97
-64
-37
-39
-18
-23
-39
-20
-11
-2
2
-27
-32
-9
-16
-6
18
9
0
30
69
78
64
67
67
43
34
48
46
37
34
25
2
-23
-32
-23
-20
-34
-27
-2
-11
-37
-34
-32
-48
-57
-30
6
-11
-39
-11
16
13
13
18
25
32
34
27
-13
-34
-6
9
9
25
46
43
27
34
57
46
30
46
53
48
50
37
16
20
43
120
361
708
826
476
27
-27
67
9
-20
18
11
6
30
-2
-62
-50
0
-4
-20
-2
6
4
25
43
43
50
48
25
32
64
57
32
39
76
90
69
48
25
20
20
4
-6
-9
-16
-30
-48
-46
-43
-94
-155
-148
-118
-108
-111
-115
-108
-97
-106
-120
-122
-129
-138
-127
-106
-101
-104
-97
-94
-87
-71
-69
-78
-71
-50
-37
-9
20
18
6
13
27
30
27
27
30
39
48
46
50
50
43
106
340
669
789
474
9
-94
18
-4
-41
-6
-2
-2
30
39
20
20
37
53
64
74
83
81
83
104
122
125
131
145
152
166
185
166
131
108
85
83
97
94
74
53
39
41
43
30
25
27
34
46
46
34
23
4
-9
4
18
18
11
13
30
37
23
23
37
20
-4
11
20
-13
-32
-11
6
4
0
2
11
18
27
48
69
81
78
74
81
90
83
67
71
87
87
90
99
101
94
97
155
338
641
805
548
104
-32
48
30
-32
-23
-2
-6
-4
-2
-25
-30
-2
11
6
6
4
11
23
27
34
34
25
46
81
90
85
92
99
101
94
74
60
57
27
-4
-13
-23
-39
-50
-55
-48
-43
-48
-53
-55
-50
-55
-64
-69
-74
-81
-81
-74
-71
-71
-76
-85
-85
-78
-78
-90
-97
-94
-81
-64
-64
-60
-48
-37
-30
-27
-16
-6
-23
-32
-13
-6
-2
4
-2
-11
-11
6
25
25
23
34
43
43
71
229
544
821
729
261
-55
-2
46
-23
-37
-2
0
-11
-4
16
32
34
46
57
57
62
76
92
101
99
104
120
131
145
166
178
173
175
180
164
141
131
134
134
122
99
83
74
60
62
71
76
74
60
48
46
37
34
34
30
34
48
50
50
50
53
55
60
62
62
50
41
50
55
53
53
20
-9
2
2
-23
-25
-13
-20
-16
4
18
23
25
20
20
37
64
83
81
74
85
106
106
90
71
67
67
60
57
30
-16
-9
46
169
456
787
789
349
-43
-30
48
-18
-30
16
11
11
30
27
25
34
30
27
32
37
41
43
48
55
57
53
64
81
85
92
85
55
41
43
37
25
-4
-39
-43
-43
-57
-64
-71
-78
-67
-60
-62
-48
-37
-39
-34
-23
-13
-9
-2
6
9
9
11
11
11
23
34
32
32
39
50
60
60
53
60
74
78
78
76
78
85
83
87
104
104
97
106
111
101
106
122
122
106
92
94
118
141
148
143
129
122
143
148
118
92
64
32
20
20
16
6
0
43
233
555
787
620
138
-106
-9
25
-39
-30
-9
-32
-48
-48
-57
-60
-53
-39
-30
-23
-18
-20
-20
-9
9
23
25
32
48
62
81
101
104
101
111
113
106
113
104
71
60
69
60
43
27
9
9
23
32
30
25
37
57
64
67
76
76
64
67
60
46
32
4
-13
4
16
18
23
11
6
23
30
34
25
-11
-30
-16
-9
-6
2
-2
-6
13
34
34
25
27
37
41
50
71
71
48
50
69
69
53
46
43
43
60
76
69
48
30
50
182
481
754
639
164
-125
-53
-4
-74
-78
-50
-55
-48
-27
-25
-23
-9
-2
-13
-37
-39
-23
-16
-9
6
20
34
41
48
69
92
92
69
46
43
48
50
55
48
32
23
20
13
4
0
2
4
11
18
20
27
39
50
50
57
76
76
64
71
81
87
87
81
85
92
83
71
64
64
71
67
71
83
74
74
92
87
64
62
71
69
60
62
62
41
16
20
34
30
30
41
46
48
57
46
20
16
13
-6
-23
-27
-34
-55
-78
-69
-60
-69
-64
16
259
615
780
465
-25
-131
-25
-53
-87
-50
-46
-60
-37
-13
-11
-13
-6
-4
9
37
39
18
11
18
32
53
67
71
83
99
115
131
143
145
141
131
138
145
127
101
81
50
32
37
37
25
-6
-34
-23
-2
2
6
11
6
2
11
18
13
18
25
27
32
34
23
2
0
9
6
6
-16
-60
-57
-27
-34
-57
-55
-48
-46
-41
-55
-74
-85
-87
-85
-87
-106
-122
-127
-122
-115
-111
-106
-97
-83
-60
-50
-60
-53
-41
-48
-48
-39
-30
-18
-11
-20
-27
-39
-39
34
261
604
780
497
23
-87
20
-32
-94
-41
-11
-27
-16
2
11
16
25
34
41
46
57
71
78
87
92
101
118
120
127
155
169
164
171
187
194
180
141
115
120
113
76
50
43
37
39
43
46
50
55
60
67
76
87
87
85
92
94
92
85
74
74
78
67
41
32
41
41
34
37
43
41
39
34
27
18
13
9
4
9
4
-2
9
16
6
11
18
16
23
30
37
46
62
76
74
69
74
69
57
60
71
64
55
60
50
37
34
37
131
416
703
648
224
-101
-76
-2
-32
-34
-34
-71
-71
-39
-41
-48
-48
-74
-78
-50
-48
-78
-83
-55
-39
-39
-30
-4
9
2
13
41
50
50
60
62
62
71
69
50
30
16
11
0
-11
-13
-6
-2
-4
-6
-6
-6
0
6
6
11
13
6
6
11
-4
-27
-34
-32
-30
-23
-18
-11
-11
-32
-57
-53
-34
-27
-27
-34
-39
-39
-41
-37
-32
-37
-32
-23
-20
-11
6
-2
-16
-2
13
18
11
-4
-13
-9
9
23
18
20
34
53
159
456
780
764
342
-16
0
64
-4
-6
43
41
41
60
57
55
64
74
83
94
90
85
97
92
85
99
104
111
134
143
150
166
171
171
187
201
201
185
159
152
148
131
120
90
41
32
57
57
55
57
32
9
27
55
46
13
13
39
48
43
50
60
55
50
60
62
53
43
37
37
53
62
53
46
57
71
69
71
76
62
41
39
37
25
20
16
16
25
32
23
-9
-41
-41
-30
-39
-43
-34
-27
-30
-23
-11
-11
0
111
400
738
761
331
-76
-76
2
-55
-62
-46
-92
-111
-99
-115
-129
-138
-169
-171
-150
-141
-129
-113
-108
-99
-81
-69
-57
-41
-32
-23
-4
16
18
16
23
27
20
18
13
-2
-18
-20
-23
-25
-25
-25
-23
-25
-32
-20
-2
2
2
13
34
46
41
46
60
62
55
67
78
83
92
99
99
99
92
81
78
83
78
78
81
85
90
76
41
16
20
32
39
39
32
16
-4
-23
-23
-11
-9
-18
-30
-30
-16
-16
-18
-2
4
-2
4
53
208
518
789
666
196
-76
-9
23
-37
-39
-18
-18
-11
0
6
13
25
34
34
39
55
71
78
87
90
90
101
125
136
143
152
164
173
185
194
199
192
173
169
171
145
94
64
60
55
53
67
71
60
62
74
83
92
99
64
23
32
64
67
57
60
62
67
74
78
74
69
74
78
81
87
71
18
-2
18
25
20
9
-13
-6
18
32
43
50
39
34
43
46
46
39
25
30
37
27
20
4
-16
16
148
414
692
650
233
-94
-74
-32
-108
-127
-99
-90
-81
-62
-55
-64
-60
-34
-16
-16
-9
2
6
16
30
43
53
60
69
85
113
125
97
64
78
101
99
94
92
74
50
39
30
23
18
13
18
30
34
37
43
55
57
62
76
83
85
90
83
83
101
101
94
97
99
99
108
104
94
94
94
87
76
62
50
46
48
57
67
64
60
67
69
78
104
108
92
87
85
74
64
57
50
53
60
60
53
50
50
87
245
560
847
726
199
-136
-60
-20
-136
-162
-118
-113
-118
-104
-97
-99
-92
-78
-71
-64
-50
-39
-30
-23
-16
-6
6
16
32
53
64
78
92
99
104
97
78
71
55
16
-9
-9
-16
-37
-43
-23
-6
-6
-4
-2
-2
6
20
20
11
-2
-23
-13
11
9
2
11
20
25
32
32
23
20
25
30
34
32
11
-20
-27
-16
-9
-6
-6
-9
-11
-2
13
16
-2
-2
20
48
53
27
2
-4
-4
-13
-18
-11
-18
-34
-30
-30
-53
-67
-39
97
402
692
576
64
-268
-201
-148
-219
-210
-169
-175
-173
-145
-125
-115
-106
-106
-97
-78
-62
-46
-37
-32
-20
-4
13
34
43
37
50
78
99
108
111
108
111
111
111
104
81
60
57
53
46
46
16
-9
11
18
18
37
37
27
43
64
64
71
83
78
76
74
71
71
69
69
85
83
53
34
39
46
50
60
76
83
76
74
85
97
87
83
94
99
94
99
118
125
106
94
113
136
125
101
97
97
87
85
87
83
81
83
87
87
69
46
62
175
449
752
717
282
-67
-53
13
-34
-46
-18
-23
-27
-13
-11
-39
-64
-57
-48
-48
-43
-41
-32
-11
2
0
-11
-23
-9
13
20
37
41
16
13
32
34
34
37
23
6
2
-6
-23
-27
-23
-16
-11
-9
-16
-34
-37
-4
6
-6
-9
2
6
9
9
11
18
16
4
9
20
18
6
-2
-2
11
20
11
4
11
16
11
11
9
2
-2
-9
-16
-11
-18
-50
-64
-41
-25
-39
-41
-46
-81
-85
-50
-39
-50
-46
-34
-34
-37
2
138
412
645
520
92
-152
-90
-53
-94
-69
-39
-55
-67
-60
-53
-39
-18
-16
-23
-9
13
20
27
43
50
53
71
92
99
111
122
134
150
166
171
166
159
157
157
148
131
111
94
85
69
57
62
64
62
69
78
85
92
101
101
90
76
67
76
62
25
20
32
43
53
46
41
57
67
69
74
74
71
71
81
90
78
62
62
71
69
60
57
55
50
55
78
108
111
85
76
90
94
81
74
67
50
43
43
41
30
13
41
194
507
808
726
229
-129
-71
-4
-83
-113
-99
-106
-94
-67
-62
-67
-62
-50
-53
-64
-64
-53
-37
-20
-16
-2
4
-18
-27
0
18
30
53
71
74
78
83
71
50
41
30
18
11
6
6
11
13
11
18
37
43
39
46
60
62
71
76
81
92
90
81
92
101
97
101
111
111
101
97
99
94
83
81
85
90
94
99
85
64
74
85
74
69
67
39
23
27
37
43
57
74
71
57
53
50
37
2
-41
-60
-48
-39
-55
-78
-76
-60
-11
166
507
775
597
87
-150
-48
-39
-104
-74
-48
-62
-50
-25
-27
-39
-25
4
16
11
11
20
34
46
55
69
78
83
81
87
104
118
125
134
143
155
159
148
129
115
108
94
76
55
37
30
34
41
43
46
55
57
55
74
85
69
60
76
85
78
62
32
2
6
23
27
27
23
25
34
34
41
55
50
37
27
30
43
43
20
16
46
55
48
50
43
34
53
81
83
62
37
13
0
-2
-9
-39
-69
-67
-55
-55
-57
-50
-6
145
449
708
571
106
-166
-113
-67
-106
-92
-71
-78
-64
-46
-46
-34
-23
-18
-9
-9
-18
-13
-6
-2
20
39
41
53
62
67
94
118
122
120
118
118
115
115
120
90
30
2
11
6
2
9
0
-6
6
18
30
39
25
20
43
53
50
53
55
64
67
67
76
78
74
71
76
83
87
81
57
43
50
60
55
50
50
57
53
41
41
55
69
69
53
43
50
50
48
39
30
32
30
23
18
6
-2
11
83
294
613
724
384
-57
-125
-18
-43
-74
-46
-57
-99
-87
-60
-64
-62
-48
-50
-50
-39
-32
-23
-9
0
9
16
30
53
60
64
83
101
108
113
113
113
122
113
62
32
34
23
4
9
11
2
2
18
23
6
-2
6
18
27
41
48
48
48
55
64
69
71
67
62
62
71
74
67
50
32
4
2
23
27
18
13
25
32
32
39
32
9
4
23
48
62
43
-2
-23
-11
-9
-13
-18
-27
-32
-27
-27
-37
-57
-74
-13
199
544
750
472
-76
-254
-125
-141
-203
-164
-152
-182
-180
-162
-157
-162
-157
-143
-136
-125
-108
-106
-104
-87
-67
-50
-34
-25
-16
11
43
62
67
67
74
85
94
99
87
60
50
60
50
27
11
6
13
27
39
43
37
39
57
64
67
71
46
16
27
46
55
67
64
53
62
81
92
85
62
41
48
64
74
78
76
62
55
60
69
69
67
74
76
60
50
67
87
97
106
106
108
106
90
74
71
83
85
67
55
50
34
20
50
180
465
770
738
284
-94
-78
-13
-71
-69
-32
-39
-39
-16
-9
-4
2
9
11
18
32
37
37
25
4
4
20
39
60
71
74
71
62
69
87
87
78
69
48
41
53
41
20
16
18
20
18
18
25
25
27
39
34
4
0
23
30
32
39
34
41
64
67
48
50
69
71
67
69
64
55
57
62
60
69
81
74
69
83
87
85
99
118
129
127
113
101
99
87
69
67
78
83
60
25
18
30
34
76
254
532
636
338
-90
-196
-104
-104
-125
-94
-74
-76
-81
-76
-53
-39
-32
-25
-23
-20
-6
9
16
18
23
27
48
74
78
78
97
113
120
125
120
104
99
101
94
90
81
53
30
34
46
46
43
41
43
62
67
64
78
85
78
90
104
99
97
101
99
97
104
104
74
41
37
46
55
64
67
53
41
55
78
81
55
30
41
60
64
76
74
43
34
48
55
57
57
48
50
43
34
90
266
560
791
613
104
-141
-32
-4
-71
-37
0
-30
-46
-43
-55
-55
-41
-43
-48
-41
-32
-25
-16
-9
-11
-4
16
32
46
57
62
67
81
104
115
104
78
53
46
34
6
-27
-62
-76
-64
-55
-53
-50
-48
-41
-37
-27
-25
-50
-69
-55
-37
-34
-37
-37
-30
-27
-27
-18
-11
-11
-13
-20
-23
-30
-32
-23
-18
-30
-20
-6
-13
-27
-20
-9
0
13
23
18
13
11
11
4
-11
-18
-16
-13
-6
0
-9
-34
-30
71
344
699
791
361
-155
-189
-53
-113
-148
-90
-83
-99
-87
-92
-106
-97
-81
-76
-74
-67
-53
-39
-34
-32
-25
-37
-50
-30
-4
2
23
43
55
69
62
46
48
48
41
39
23
4
2
4
6
16
25
27
30
32
41
62
67
62
67
78
83
92
104
104
104
106
106
113
120
120
113
106
108
115
101
74
64
69
74
87
97
87
81
92
101
99
108
122
145
157
148
145
157
148
127
120
127
134
127
94
60
46
39
34
120
358
657
740
393
-41
-83
37
-4
-43
-2
6
-2
0
-11
-16
-6
-4
-9
-11
-9
2
16
25
27
23
25
41
60
78
74
67
81
101
108
87
39
2
4
9
-2
-16
-23
-27
-34
-34
-20
-11
-9
-6
6
23
18
20
41
43
39
60
81
67
55
62
57
53
69
62
39
43
67
83
78
55
27
16
27
37
43
53
53
64
78
74
85
113
104
78
69
74
85
90
78
78
92
99
94
134
303
578
731
509
81
-92
-11
18
-16
-16
-4
-2
-2
0
13
18
20
32
30
23
32
32
16
11
9
4
9
25
41
60
57
39
53
69
57
53
57
50
46
46
16
-13
0
6
-4
-16
-48
-67
-39
-34
-53
-32
-9
-2
13
23
13
16
27
32
30
34
34
18
9
13
27
41
39
27
32
16
-13
2
39
48
43
50
57
46
37
46
48
46
50
50
48
55
62
69
134
328
620
791
539
57
-99
23
25
-30
2
25
9
9
6
2
11
18
16
20
23
20
25
43
53
32
0
-13
6
32
27
6
-25
-50
-41
-23
-27
-48
-60
-71
-83
-85
-87
-106
-111
-97
-101
-125
-127
-115
-115
-101
-74
-62
-60
-57
-50
-32
-13
-2
0
-9
-9
6
18
20
16
6
9
4
2
25
34
6
4
32
46
55
78
83
71
81
87
78
71
64
64
76
78
83
85
71
81
171
398
726
889
574
53
-64
76
39
-32
13
30
4
20
39
2
-43
-32
-6
-18
-41
-50
-43
-37
-27
-2
18
20
27
39
41
57
67
46
30
53
64
57
48
25
-4
-30
-41
-43
-46
-50
-48
-43
-37
-16
-6
-11
-11
-2
11
18
11
11
25
30
39
48
39
32
43
55
57
60
60
60
55
53
50
39
34
41
46
50
64
81
90
87
83
90
99
81
48
34
39
41
43
23
-16
-25
2
71
289
636
821
520
0
-122
25
-2
-74
-43
-25
-30
-16
-13
-16
-4
0
-13
-13
-6
-11
-11
2
16
4
-20
-18
2
16
32
46
43
48
53
39
32
39
25
2
-9
-32
-64
-69
-64
-69
-69
-57
-41
-39
-43
-32
-18
-20
-11
-2
-16
-32
-32
-27
-37
-67
-81
-62
-43
-37
-43
-55
-27
16
9
-13
-6
0
-2
13
25
18
23
39
41
34
50
76
97
99
90
94
106
101
81
67
81
101
113
104
85
94
111
134
259
539
801
743
314
-32
-4
67
16
23
60
43
43
55
48
48
57
69
76
60
46
50
41
18
23
39
48
60
69
78
97
97
85
92
99
90
78
53
18
6
4
-6
-32
-81
-104
-87
-74
-69
-71
-81
-71
-50
-41
-32
-30
-41
-32
-9
2
0
-2
-4
0
9
25
30
23
16
11
13
23
25
18
6
11
32
41
39
48
74
85
76
74
85
76
57
57
64
48
23
20
23
18
30
67
169
416
713
722
314
-60
-41
46
-11
-32
4
-4
-43
-67
-57
-43
-37
-34
-57
-94
-101
-83
-67
-57
-57
-53
-41
-23
2
13
18
39
43
32
39
43
23
-2
-32
-60
-67
-78
-106
-115
-108
-111
-108
-101
-99
-97
-94
-92
-87
-83
-83
-78
-76
-78
-99
-122
-120
-106
-104
-106
-99
-92
-94
-87
-81
-78
-78
-76
-69
-55
-43
-34
-32
-32
-13
11
20
30
41
39
32
32
34
34
6
-25
-23
-4
2
2
4
30
134
393
722
764
335
-76
-50
46
-34
-53
-2
-4
-9
13
11
-9
-9
2
11
18
20
23
34
43
50
55
67
62
48
53
69
69
64
69
74
74
71
69
50
18
4
6
0
-11
-13
-13
-9
0
6
9
11
20
27
25
37
53
46
41
55
69
69
67
48
13
4
20
30
34
32
27
25
30
32
34
34
34
43
60
69
76
92
111
120
122
122
120
108
104
106
108
111
115
111
90
64
69
120
273
557
805
673
189
-81
-6
-2
-76
-46
-37
-76
-67
-55
-60
-43
-18
-11
-20
-30
-20
0
9
20
27
16
4
13
18
16
18
25
32
37
37
34
34
20
-18
-34
-27
-57
-118
-141
-113
-106
-122
-111
-101
-111
-101
-81
-78
-87
-87
-78
-60
-53
-55
-43
-34
-43
-48
-53
-62
-57
-43
-37
-27
-20
-18
-20
-25
-20
4
46
67
55
46
57
60
62
62
57
67
81
78
85
101
101
129
252
504
761
703
280
-23
39
120
74
71
94
69
55
76
74
48
60
83
74
71
81
60
43
67
81
71
78
87
85
83
90
99
99
87
76
81
76
55
27
9
6
0
-18
-27
-41
-57
-43
-30
-34
-18
-9
-16
-4
13
16
13
23
25
27
39
37
34
39
39
48
57
53
55
55
39
57
101
111
101
90
78
81
78
64
53
46
48
69
85
71
53
64
113
243
516
794
696
187
-148
-39
43
-50
-83
-71
-74
-55
-41
-55
-71
-71
-50
-37
-43
-48
-46
-39
-20
-4
0
0
4
23
46
55
57
62
67
71
76
87
83
50
39
41
18
-6
-16
-34
-53
-46
-32
-30
-27
-27
-34
-37
-18
-11
-20
-23
-13
-11
-2
11
16
4
-4
0
18
39
32
6
9
32
37
34
39
37
32
39
60
90
74
6
-23
-20
-34
-50
-50
-50
-46
-34
-25
-23
-23
-6
76
305
657
833
483
-62
-134
34
-23
-76
-13
-18
-39
-2
20
9
6
11
13
25
43
53
39
30
48
69
74
78
76
74
87
104
115
122
125
120
120
120
115
106
81
62
57
41
18
4
-4
-4
-4
-2
2
4
0
-4
-18
-41
-43
-32
-27
-25
-18
-11
-23
-57
-71
-53
-41
-43
-43
-37
-23
-16
-11
-4
4
4
9
18
23
32
34
34
53
76
87
92
81
71
71
62
53
60
55
57
76
78
67
67
92
201
467
801
838
375
-83
-62
41
-41
-50
2
-16
-20
11
11
2
18
23
18
23
13
-11
-18
-4
6
4
4
16
32
43
55
67
81
81
50
25
41
50
34
16
-4
-27
-37
-43
-55
-62
-60
-48
-41
-37
-34
-43
-48
-37
-18
-9
-6
-4
-2
2
11
23
23
18
27
41
48
46
43
48
55
60
69
78
81
74
76
87
94
92
92
92
94
94
81
74
78
71
78
101
104
94
94
90
85
87
87
81
71
78
101
106
97
101
150
342
666
791
449
4
-48
53
6
-16
34
25
-6
13
37
37
39
39
30
27
34
43
53
53
55
69
81
92
108
111
104
120
141
131
111
101
90
81
78
78
67
43
23
9
-9
-18
-16
-16
-32
-55
-53
-30
-18
-25
-23
-9
9
9
4
6
13
16
18
25
32
27
25
34
43
46
41
46
53
55
57
50
13
-18
-16
-4
-6
-11
-30
-53
-34
-4
-4
-4
-2
-13
-20
-13
-2
4
6
11
9
2
13
69
226
518
747
564
94
-106
0
13
-71
-78
-48
-60
-71
-67
-85
-101
-83
-67
-74
-69
-62
-62
-57
-53
-64
-71
-64
-64
-60
-48
-37
-32
-34
-30
-25
-27
-30
-32
-37
-53
-78
-92
-85
-85
-87
-83
-94
-129
-125
-87
-81
-78
-62
-50
-39
-20
-16
-13
-6
4
16
20
23
34
39
37
46
64
67
62
67
62
53
60
71
71
64
71
85
76
48
46
53
57
76
106
118
104
99
108
113
111
104
92
90
99
101
85
74
76
90
187
463
791
805
361
-50
-25
74
4
-18
16
2
-13
-4
-6
-27
-64
-78
-53
-34
-39
-39
-32
-23
-4
18
27
30
34
55
78
92
106
106
92
87
94
97
94
78
60
53
57
48
9
-18
-6
11
16
23
34
37
37
46
62
81
83
69
67
87
97
97
101
97
87
87
90
83
60
23
16
37
41
46
55
48
48
60
71
83
83
71
71
85
101
120
134
136
125
111
104
99
85
69
67
76
83
92
90
60
50
120
324
648
805
495
0
-134
-27
-50
-122
-113
-97
-94
-81
-71
-81
-78
-62
-50
-41
-25
-18
-23
-16
4
20
27
32
43
57
64
67
78
90
92
92
99
106
104
92
81
71
71
64
48
43
55
67
64
60
71
83
81
81
97
108
99
99
104
104
113
118
99
87
99
101
85
64
48
48
55
53
53
55
50
34
11
11
27
30
34
50
71
92
97
78
67
81
78
50
32
37
46
48
37
25
20
20
69
224
493
710
567
118
-127
-60
-20
-71
-69
-46
-41
-39
-37
-37
-32
-13
-2
-6
-6
6
9
9
34
50
46
48
53
60
81
97
101
104
104
111
115
115
111
74
23
11
4
-34
-53
-43
-48
-55
-37
-20
-32
-57
-69
-62
-50
-37
-23
-16
-13
-13
-20
-23
-20
-25
-23
-13
-2
6
6
0
2
13
20
25
18
6
18
43
64
71
57
39
46
50
32
25
27
20
20
27
27
20
6
32
208
532
724
463
-30
-187
-64
-62
-120
-94
-78
-99
-85
-67
-94
-125
-129
-127
-118
-104
-94
-106
-131
-127
-97
-83
-74
-55
-43
-32
-20
-20
-11
4
4
11
23
25
18
6
-11
-18
-9
-9
-11
-9
-6
4
23
34
39
37
43
53
64
78
81
71
71
83
94
104
99
85
78
85
97
104
99
94
97
101
101
111
122
113
106
115
125
122
111
104
101
101
111
113
92
78
90
92
85
83
62
32
20
57
240
578
819
606
92
-129
-13
11
-57
-41
-13
-27
-18
4
2
0
9
11
6
4
-6
-16
-4
6
13
20
27
32
43
62
67
53
55
71
69
64
74
69
60
55
46
32
20
6
9
18
13
9
9
4
-2
6
18
20
4
-18
-18
-4
-4
-9
-4
-2
-6
-11
0
0
-34
-57
-41
-30
-41
-39
-37
-39
-27
-13
-9
-6
-9
-9
2
16
32
41
30
23
32
30
11
0
0
2
13
16
-6
-39
-39
20
203
532
770
557
50
-141
-27
-32
-101
-76
-57
-67
-46
-25
-37
-46
-50
-60
-46
-23
-34
-50
-30
-18
-30
-18
0
-6
-6
4
16
25
27
32
50
60
57
53
39
27
27
30
25
9
-20
-46
-34
-18
-13
-4
-2
2
16
30
43
50
50
57
69
76
74
62
48
46
67
83
78
71
74
78
90
99
106
106
97
97
108
113
113
108
115
141
155
131
108
106
94
83
90
99
99
92
85
78
71
83
143
317
608
805
592
134
-34
69
71
20
48
57
27
30
43
46
53
60
55
55
60
60
69
81
67
27
18
32
23
4
11
23
25
32
37
27
4
-25
-32
-32
-37
-43
-46
-50
-62
-67
-53
-46
-46
-37
-30
-30
-37
-50
-55
-43
-32
-27
-20
-16
-23
-34
-34
-27
-23
-20
-20
-18
-18
-11
-9
-16
-13
-2
-2
-2
6
0
-2
6
6
13
34
39
25
20
25
20
0
-18
-4
27
11
-20
-34
-53
-55
34
289
632
738
370
-83
-122
-2
-34
-60
-23
-18
-34
-34
-25
-20
-16
0
13
11
-6
-25
-18
2
6
23
50
50
34
34
39
37
43
53
57
60
64
60
48
39
27
23
20
11
2
2
9
16
18
23
27
34
50
62
62
62
67
67
76
87
78
64
69
76
74
78
83
76
43
20
37
50
48
46
43
50
64
76
78
76
76
87
97
101
97
85
87
101
111
108
108
104
83
69
76
87
87
81
81
83
87
108
201
446
775
826
416
-6
-18
67
4
-13
25
23
13
13
13
32
48
43
30
20
13
-4
-18
-13
-23
-57
-57
-32
-23
-11
4
9
25
46
43
39
39
37
37
32
18
-4
-41
-74
-74
-71
-69
-48
-41
-76
-99
-85
-69
-74
-76
-74
-71
-57
-43
-46
-48
-41
-41
-39
-18
-13
-30
-32
-23
-23
-25
-20
-20
-23
-13
-2
4
6
-2
-6
4
27
50
60
57
55
50
41
43
50
46
37
46
67
76
67
64
92
173
386
673
726
370
-9
-37
48
23
6
37
39
32
41
27
-13
-34
-46
-57
-53
-60
-78
-74
-50
-34
-30
-30
-16
6
20
32
43
55
62
69
76
81
83
71
64
64
46
30
30
25
23
32
34
39
50
48
50
57
55
57
62
60
67
81
81
83
87
90
90
90
94
97
87
92
111
118
111
104
101
108
125
122
113
115
122
122
125
127
120
108
94
92
108
108
85
57
30
27
48
57
48
39
43
111
317
648
852
583
53
-101
37
16
-64
-57
-64
-69
-41
-30
-37
-48
-53
-57
-69
-71
-64
-69
-55
-30
-25
-23
-16
-6
11
27
41
53
53
48
55
62
62
57
37
11
4
-2
-6
-4
-18
-37
-32
-25
-34
-64
-97
-92
-74
-69
-64
-60
-67
-67
-50
-41
-46
-57
-76
-92
-78
-64
-64
-64
-60
-53
-39
-23
-11
-4
-9
-2
20
32
32
34
34
30
27
30
46
48
41
60
97
115
113
101
94
101
106
99
92
87
78
81
92
92
85
115
270
597
886
764
256
-46
39
81
0
-9
-16
-69
-71
-41
-41
-41
-32
-30
-30
-18
0
9
6
11
25
41
50
62
76
90
101
104
115
127
101
69
74
85
78
60
46
30
4
-4
9
11
4
13
23
25
34
53
55
48
55
71
83
81
78
85
92
99
104
104
104
106
104
111
120
111
101
111
115
104
92
81
55
55
69
67
62
71
76
78
83
92
97
81
76
90
83
69
60
50
53
57
43
39
25
-23
-37
-11
-13
-20
-39
-92
-120
-101
-20
222
553
629
256
-171
-215
-108
-141
-169
-129
-122
-129
-115
-111
-106
-87
-83
-87
-76
-64
-64
-55
-37
-34
-46
-34
-6
4
11
16
2
-11
-18
-16
-9
-9
-11
-11
-9
-6
-18
-34
-41
-34
-27
-27
-16
-4
-4
2
23
32
43
57
55
48
60
81
97
101
97
81
78
99
108
81
39
27
43
60
60
62
67
76
85
94
101
104
99
99
108
113
108
97
111
143
148
136
138
131
115
113
111
92
78
81
83
64
23
18
85
252
544
743
511
39
-129
-27
-13
-48
-16
-2
-18
-13
-2
0
13
37
34
25
41
67
69
74
83
69
62
90
115
115
125
145
155
155
169
175
162
152
150
143
131
106
57
18
23
43
46
37
30
37
48
62
74
74
71
81
83
71
62
69
81
78
69
55
30
2
-20
-16
-2
4
6
13
18
18
30
39
37
39
46
50
46
43
37
30
32
34
48
76
78
55
39
43
43
37
25
13
2
-6
-11
-23
-37
-37
11
194
532
780
569
39
-185
-81
-78
-143
-118
-97
-113
-108
-92
-104
-136
-141
-125
-129
-138
-125
-113
-101
-74
-57
-50
-46
-53
-37
0
16
25
43
50
57
76
78
71
67
60
50
41
32
30
34
43
50
53
53
60
62
57
69
81
78
83
90
92
101
111
108
111
118
125
131
134
131
127
127
131
138
141
136
129
131
134
125
120
120
115
111
106
104
94
74
43
23
37
74
90
83
62
27
6
-2
-20
-27
-23
-18
-9
-4
-13
-13
11
131
423
745
736
294
-90
-60
23
-34
-41
-20
-39
-27
6
9
2
6
13
27
46
55
60
60
60
71
92
106
108
106
115
141
166
180
182
169
159
171
180
166
141
120
108
83
57
55
43
2
-9
9
18
20
18
11
6
0
-6
-2
-25
-64
-60
-34
-20
-11
-16
-23
-13
-4
-2
0
-2
-6
-9
0
13
13
-6
-20
-25
-30
-20
-2
11
6
-6
-4
2
-9
-27
-34
-37
-32
-30
-43
-69
-85
-76
20
256
541
608
263
-152
-192
-74
-106
-141
-111
-113
-118
-87
-78
-87
-67
-37
-30
-30
-23
-18
-6
-4
-18
-18
-4
11
30
46
67
64
34
32
55
64
69
76
64
50
46
37
18
0
-4
0
0
4
16
27
34
41
50
60
71
76
78
85
90
94
97
97
104
108
108
115
125
118
113
120
125
125
122
118
120
113
101
104
113
115
118
125
138
148
138
131
138
143
115
71
48
53
62
60
57
53
53
99
275
601
877
717
164
-150
-50
-16
-111
-118
-99
-108
-97
-76
-71
-76
-74
-57
-39
-34
-34
-27
-11
4
16
25
32
37
53
74
87
101
94
62
43
55
64
62
48
25
4
-6
-11
-16
-18
-23
-18
0
11
13
11
9
25
41
48
55
43
20
23
43
57
60
53
50
57
67
76
83
76
71
78
85
83
64
20
-2
13
27
30
37
32
30
43
50
60
83
97
92
90
104
111
94
67
53
55
64
69
64
48
43
62
141
370
713
870
537
16
-97
18
-39
-108
-64
-50
-74
-62
-48
-60
-60
-43
-30
-18
-20
-41
-53
-32
-6
-2
-2
4
20
37
57
69
69
76
90
94
87
76
60
41
41
41
23
9
9
11
13
20
25
27
27
30
41
55
48
23
4
11
27
32
27
25
34
46
50
53
57
57
48
43
46
55
62
62
60
55
60
71
83
76
74
81
83
90
90
81
76
69
57
71
87
81
81
85
64
41
39
37
32
30
30
23
13
16
53
187
467
754
683
203
-136
-81
-18
-76
-81
-64
-81
-74
-57
-81
-113
-94
-76
-83
-76
-78
-120
-125
-87
-71
-67
-53
-48
-41
-16
-6
-6
9
25
23
23
32
25
6
6
9
-9
-32
-43
-50
-41
-34
-50
-78
-90
-78
-62
-53
-43
-39
-43
-48
-34
-23
-34
-53
-60
-62
-60
-37
-18
-27
-41
-34
-23
-13
4
6
-4
4
30
41
39
32
37
60
76
92
111
111
97
101
108
104
101
94
81
71
76
81
74
46
39
150
430
740
743
303
-94
-60
53
-11
-37
-2
-16
-30
-18
-13
-27
-50
-60
-39
-25
-18
-13
-16
-4
18
16
11
27
32
32
60
87
99
106
106
104
106
113
106
85
67
60
55
53
55
48
34
41
62
69
69
69
67
76
94
99
101
101
87
87
101
104
99
99
94
99
113
122
101
62
46
55
62
60
69
67
55
67
87
87
81
71
50
48
64
67
67
78
94
94
69
57
62
53
37
34
39
30
4
-20
-18
-4
-9
9
138
437
759
747
277
-143
-127
-37
-108
-122
-76
-85
-94
-74
-64
-71
-64
-60
-60
-57
-53
-43
-34
-30
-27
-18
-9
4
18
23
34
46
48
48
50
25
-9
-6
-9
-32
-41
-53
-83
-118
-134
-120
-113
-120
-113
-111
-122
-113
-90
-83
-76
-60
-48
-41
-30
-23
-6
6
11
11
23
34
43
48
43
48
60
62
67
76
76
74
83
94
99
99
94
87
78
81
76
69
74
71
62
71
92
101
113
118
106
106
113
104
90
81
67
60
57
50
41
6
-34
-2
125
384
694
703
250
-162
-141
-50
-118
-127
-83
-85
-76
-48
-50
-53
-34
-16
-2
2
4
11
23
37
50
62
71
74
90
106
120
134
136
134
148
162
162
150
122
94
92
92
83
71
60
48
53
64
67
69
74
74
81
97
104
97
94
101
111
111
115
118
108
111
120
122
111
83
60
53
41
37
48
30
-11
-6
18
9
-6
-32
-67
-67
-46
-43
-39
-34
-39
-34
-20
-18
-13
-9
-23
-23
-4
2
-11
-34
-43
-39
-41
-60
-78
-83
-85
-81
-71
-64
-71
-83
-41
134
451
692
511
23
-208
-113
-83
-138
-122
-106
-125
-115
-87
-81
-78
-74
-71
-57
-34
-23
-34
-53
-60
-48
-25
-9
-2
4
27
55
71
76
90
104
104
97
106
92
43
16
13
6
4
2
-6
4
18
20
30
39
46
55
62
57
53
57
60
60
62
76
83
74
78
92
92
87
94
99
99
99
92
81
81
87
85
83
81
81
92
92
85
90
101
115
125
111
71
30
11
9
-6
-23
-11
4
2
0
6
2
2
46
196
502
775
645
162
-108
-20
11
-81
-85
-48
-53
-53
-37
-32
-18
-4
-2
-11
-9
2
11
20
34
46
48
55
74
92
111
125
127
131
143
148
150
152
145
122
111
106
90
62
20
-6
-2
11
16
20
20
13
13
11
-2
-9
-4
2
18
27
27
25
27
34
41
50
53
39
30
34
32
27
27
11
6
16
20
25
18
-18
-53
-43
-34
-48
-67
-81
-87
-90
-94
-92
-85
-81
-69
-67
-71
-67
-67
-78
-87
-81
-69
-60
-64
-69
-60
-43
-11
113
409
733
733
300
-92
-69
18
-62
-81
-23
-27
-57
-60
-46
-32
-18
-6
2
6
9
23
41
55
64
71
76
94
118
131
143
150
150
164
178
180
180
178
164
148
125
97
87
78
64
71
83
74
48
25
25
39
48
55
64
64
64
78
85
85
83
81
81
92
104
99
85
69
67
76
81
81
71
57
55
64
74
71
60
41
39
41
37
25
11
2
-2
6
23
39
43
32
32
48
46
30
20
25
27
30
39
46
41
32
37
120
382
710
775
400
-32
-74
32
-6
-27
6
2
-6
-6
-34
-48
-27
-20
-25
-30
-48
-55
-34
-16
-9
-2
9
23
37
48
62
64
60
74
97
94
83
85
78
48
16
-2
-20
-37
-30
-20
-32
-39
-32
-30
-25
-9
-2
-6
-9
-4
2
6
4
6
6
-2
-6
-6
-16
-23
-25
-39
-46
-32
-30
-50
-55
-41
-39
-37
-23
-23
-30
-20
-4
11
32
43
34
18
18
13
-9
-43
-76
-94
-81
-57
-57
-71
-74
-48
43
270
578
683
349
-83
-150
-57
-85
-113
-85
-69
-62
-43
-23
-20
-20
-4
13
20
32
41
41
50
69
85
94
99
106
120
125
131
145
145
145
159
169
166
155
134
115
111
106
104
97
81
74
83
94
99
97
94
99
118
127
129
127
122
131
138
136
127
106
92
99
106
111
104
69
48
60
69
57
37
20
23
34
43
50
55
55
53
50
46
57
76
81
71
74
85
85
71
57
43
34
41
48
37
20
11
23
134
421
726
703
254
-155
-143
-60
-159
-189
-129
-122
-125
-104
-97
-97
-90
-78
-64
-57
-55
-48
-39
-25
-20
-32
-34
-11
9
16
30
43
48
57
64
62
69
53
16
-4
-11
-23
-41
-81
-111
-104
-99
-101
-94
-92
-85
-74
-71
-69
-62
-55
-50
-53
-60
-55
-48
-37
-25
-13
-4
4
9
11
20
34
39
41
41
43
57
69
67
71
78
83
90
92
83
74
64
67
90
113
108
90
81
83
87
83
69
67
67
62
62
64
46
32
39
97
331
689
810
419
-97
-169
-34
-78
-120
-74
-69
-78
-48
-32
-39
-34
-25
-32
-30
-13
0
-2
9
27
37
53
71
71
83
108
127
136
143
141
141
150
152
145
131
113
101
94
83
74
64
62
76
78
64
60
55
55
64
76
90
92
81
83
99
104
101
108
104
90
76
62
69
71
57
53
69
74
76
83
78
76
92
104
90
83
92
85
64
67
85
71
32
23
34
39
27
-6
-50
-53
-32
-18
-13
-18
-25
-18
25
182
476
703
534
55
-182
-87
-48
-111
-104
-78
-85
-81
-69
-76
-74
-55
-39
-34
-32
-23
-13
-6
4
20
32
39
50
60
48
43
62
69
64
78
99
94
81
83
74
50
39
41
34
16
-2
4
25
20
-13
-23
-4
6
13
23
18
20
37
39
41
48
50
57
71
71
74
81
81
76
78
83
90
90
81
83
85
67
55
71
90
99
104
106
101
101
101
85
76
83
76
60
60
69
57
57
111
291
632
840
544
18
-120
9
-11
-76
-50
-41
-67
-71
-67
-64
-60
-48
-46
-53
-41
-23
-16
-11
-6
2
20
32
37
41
20
4
30
48
43
53
64
55
50
46
30
11
2
-2
-2
-16
-32
-25
-11
-4
0
4
9
20
25
37
55
60
53
50
57
67
71
76
78
69
48
41
55
62
46
11
-13
0
18
20
20
16
11
20
27
30
37
43
62
85
90
81
81
78
69
62
53
48
48
43
41
48
53
64
143
384
715
766
338
-92
-106
-30
-97
-122
-99
-111
-122
-111
-94
-83
-74
-69
-71
-62
-48
-41
-32
-13
-6
-4
9
32
43
50
50
37
39
57
62
62
69
74
67
57
50
32
0
-9
0
11
13
9
6
20
34
39
50
53
46
53
71
78
78
74
76
81
85
92
97
92
87
92
104
104
99
101
94
78
71
76
57
18
6
34
60
74
78
64
60
71
74
67
55
57
69
71
69
60
43
30
41
138
414
717
687
250
-108
-76
11
-46
-74
-48
-50
-57
-48
-60
-71
-55
-46
-48
-39
-32
-30
-20
-11
-6
6
18
23
34
53
67
83
92
90
92
97
99
97
90
76
50
16
9
13
-2
-6
6
6
6
6
-20
-34
-6
4
2
13
20
23
30
32
37
20
-16
-16
0
-23
-48
-39
-27
-23
-6
2
-11
-27
-20
-2
18
34
27
11
23
39
27
16
30
27
13
20
34
25
9
41
187
472
757
722
266
-120
-90
-2
-69
-90
-57
-71
-87
-71
-71
-85
-87
-81
-71
-57
-48
-57
-67
-67
-62
-60
-55
-48
-64
-85
-62
-30
-25
-20
-13
-11
-2
6
-18
-60
-76
-69
-74
-74
-67
-81
-92
-71
-50
-41
-27
-16
-11
2
16
30
43
48
50
64
74
78
83
85
85
94
101
108
108
99
99
108
115
127
138
143
145
136
122
129
134
113
97
111
125
125
120
108
106
127
162
289
601
956
935
402
-41
32
141
34
23
87
76
50
23
-23
-20
16
2
-32
-32
-18
-11
0
11
20
27
34
46
62
81
92
99
99
94
92
87
69
53
37
13
2
2
-9
-23
-23
-18
-13
-4
-2
-13
-25
-25
-9
6
6
6
16
23
30
25
-6
-34
-27
-11
-4
6
16
18
20
25
34
43
43
39
43
57
71
71
50
32
43
57
57
62
62
60
57
60
53
27
2
4
18
25
30
27
37
113
344
715
928
606
32
-101
57
32
-27
16
25
6
30
41
39
39
27
13
18
25
27
30
37
48
55
57
69
78
90
99
94
90
92
83
78
74
62
55
46
25
16
9
-4
-9
-11
-27
-50
-53
-53
-60
-57
-43
-30
-20
-13
-9
-9
-4
9
18
23
6
-27
-34
-11
-2
-6
-2
4
6
25
37
32
30
39
41
48
62
64
57
57
64
67
69
74
78
92
113
122
120
118
108
94
97
106
106
101
99
101
104
106
136
263
551
861
819
344
-20
30
104
32
4
6
-13
-23
-25
-23
-9
0
0
-6
0
18
27
32
41
39
43
64
78
74
55
20
-2
13
30
25
20
18
16
18
11
2
-11
-37
-55
-57
-53
-50
-76
-113
-101
-69
-64
-64
-60
-60
-53
-37
-25
-20
-18
-23
-16
-4
2
4
4
0
2
11
16
20
20
16
13
4
-11
-16
-9
-13
-20
-13
2
9
-2
-9
-2
6
11
27
39
32
23
23
20
9
-4
-13
-9
2
11
6
-4
-2
39
175
460
729
641
194
-113
-64
-18
-108
-129
-83
-71
-74
-62
-55
-50
-43
-32
-23
-16
-11
-9
-16
-20
-11
-4
-4
-4
11
32
43
48
48
50
53
46
25
-4
-13
0
-11
-30
-23
-25
-39
-34
-25
-18
-4
2
11
25
30
37
43
39
48
64
64
67
78
74
74
87
87
83
85
83
83
92
97
97
74
34
27
48
53
53
55
60
83
113
120
111
104
101
97
94
94
99
99
97
106
111
106
120
203
432
736
801
419
-25
-81
13
-16
-41
-16
-6
-6
6
11
9
13
9
0
-2
-2
-2
0
2
13
25
32
37
34
13
-4
13
34
37
25
6
9
27
32
20
4
-11
-16
-11
-6
-9
-34
-71
-74
-50
-32
-23
-27
-43
-32
-6
-2
0
6
2
6
27
46
48
43
39
34
30
37
48
39
16
4
13
27
30
25
34
53
64
69
67
62
71
90
113
131
127
106
101
113
113
99
90
78
74
81
81
71
55
83
259
590
840
666
171
-76
6
20
-43
-39
-39
-62
-53
-37
-30
-20
-23
-25
-16
-9
-6
4
13
2
11
39
48
27
4
0
6
16
30
39
37
23
4
-2
4
0
-18
-30
-30
-23
-16
-23
-32
-27
-6
16
23
16
13
27
41
43
48
50
48
53
62
67
50
34
39
55
64
64
60
55
57
62
71
85
83
76
78
83
97
122
127
120
113
111
106
101
99
101
97
78
71
74
64
67
127
314
611
750
419
-74
-157
-37
-83
-131
-101
-106
-118
-111
-104
-99
-97
-92
-78
-71
-76
-90
-108
-99
-81
-71
-60
-41
-30
-16
2
6
0
2
11
18
27
34
30
16
6
2
-9
-27
-37
-37
-27
-23
-25
-18
-11
-11
-9
0
4
4
11
13
16
20
16
13
11
-2
-20
-20
-13
-13
-23
-25
-16
-11
-11
-16
-32
-41
-20
4
13
4
-23
-46
-34
-23
-25
-25
-23
-13
4
13
11
16
76
291
652
872
595
34
-152
-6
-9
-74
-30
-11
-39
-18
9
13
18
18
16
32
39
34
37
27
11
23
46
55
60
69
74
83
97
108
111
104
90
85
90
87
67
43
34
34
39
43
43
32
9
9
27
37
34
34
43
57
64
67
46
6
9
34
43
48
50
43
46
55
46
37
41
43
39
50
67
74
81
92
104
113
115
111
94
76
78
92
99
99
97
90
90
97
131
280
601
893
768
266
-23
62
87
0
16
60
41
32
48
53
55
62
41
-2
-32
-46
-53
-43
-30
-25
-18
-6
6
18
32
46
46
37
34
32
-2
-43
-50
-57
-87
-111
-113
-125
-136
-134
-120
-115
-120
-118
-101
-97
-97
-81
-67
-69
-74
-67
-60
-60
-57
-43
-39
-43
-43
-43
-48
-48
-43
-46
-43
-37
-43
-53
-39
-18
-4
16
18
4
4
16
18
9
11
23
16
-4
-2
9
9
46
194
474
752
678
215
-94
-18
50
-2
2
30
20
13
13
6
-13
-25
-9
9
11
16
20
18
23
32
37
39
46
64
83
92
101
104
101
104
113
115
97
69
43
27
18
9
-6
-23
-30
-23
-11
-13
-11
2
11
16
25
34
34
34
41
50
46
20
6
13
20
27
41
46
37
37
50
60
62
76
90
97
101
97
83
76
64
57
64
74
85
94
85
74
83
118
236
525
840
803
328
-74
-39
62
-9
-27
27
27
23
43
41
39
55
69
71
67
57
64
76
78
87
78
43
46
78
94
108
115
106
99
101
99
78
43
16
11
6
4
0
-13
-23
-13
-2
2
-4
-11
-20
-39
-48
-37
-30
-32
-32
-20
-11
-4
2
0
-2
4
18
25
25
25
25
32
46
48
43
41
41
48
57
55
32
13
32
53
55
46
27
16
13
18
30
41
34
37
43
48
67
159
414
773
896
507
0
-55
57
-27
-76
-13
-9
-27
-4
9
4
16
32
34
34
37
30
34
48
53
55
67
76
85
101
115
120
122
118
113
118
111
94
87
76
64
55
39
25
27
30
30
27
18
9
2
-9
-23
-53
-94
-92
-62
-62
-74
-67
-57
-46
-39
-43
-37
-30
-34
-23
-6
-4
0
-2
-16
-23
-34
-32
-18
-16
-18
-6
2
2
13
25
27
32
43
34
27
32
34
27
27
37
41
41
43
50
64
125
303
601
796
569
94
-76
27
37
-4
25
39
13
-13
-30
-18
0
-2
-20
-23
-6
6
13
23
13
-20
-34
-16
2
9
9
13
27
41
46
48
41
37
39
30
-2
-48
-85
-101
-113
-125
-125
-120
-131
-141
-141
-134
-122
-122
-127
-118
-104
-99
-92
-85
-92
-97
-92
-85
-78
-78
-85
-81
-62
-50
-43
-37
-39
-43
-34
-16
0
0
-6
-6
9
25
32
34
39
41
50
57
53
43
41
48
57
67
74
71
69
134
342
671
877
615
60
-134
18
30
-53
-48
-30
-30
-11
6
13
18
11
13
34
53
48
37
43
60
74
81
90
99
108
113
125
143
143
136
136
134
118
99
76
46
23
18
13
2
-6
-6
-6
-6
-13
-18
-16
-9
0
16
30
27
25
34
41
46
55
57
55
57
60
64
69
69
74
74
69
71
83
76
55
50
62
64
64
64
62
67
83
97
87
55
37
48
46
27
34
48
48
48
48
55
67
127
344
699
893
601
39
-157
-11
-2
-81
-48
-6
-20
-27
-23
-37
-39
-30
-34
-37
-30
-23
-13
-9
-4
11
16
13
32
34
23
30
37
27
20
18
13
11
0
-20
-41
-60
-92
-122
-131
-131
-136
-138
-136
-129
-120
-122
-150
-175
-157
-127
-120
-122
-122
-113
-97
-83
-74
-67
-62
-53
-41
-32
-18
-18
-25
-13
4
11
20
23
18
25
39
39
39
57
69
69
76
83
78
64
62
76
87
99
101
92
87
113
222
495
849
909
460
-6
-2
125
48
2
43
43
18
13
16
9
2
13
30
39
39
39
41
43
46
46
41
32
46
69
78
85
76
41
34
50
53
48
34
11
-4
-4
-4
-6
-13
-25
-25
-20
-20
-18
-11
-6
0
13
27
34
34
34
46
55
62
69
64
64
76
85
87
90
85
85
92
101
108
111
106
104
113
108
81
57
53
57
69
85
104
115
108
104
111
113
94
60
34
37
48
57
60
55
69
145
384
775
979
590
-48
-164
18
-32
-97
-34
-32
-67
-53
-34
-37
-30
-18
-18
-18
-18
-23
-25
-23
-16
-2
11
13
20
34
41
53
64
67
71
78
78
71
64
53
43
34
23
9
-9
-30
-27
-13
-11
-4
4
9
18
25
27
37
48
46
53
64
67
69
76
76
78
87
90
90
90
92
104
108
97
92
74
41
37
39
32
34
43
62
87
99
90
87
92
87
81
83
83
83
85
92
94
94
118
217
488
840
893
442
-23
-18
87
11
-9
37
16
-16
-18
-20
-16
-2
-2
-4
6
20
23
18
11
6
9
20
27
39
43
46
55
69
78
76
71
67
64
64
55
39
23
9
-2
-16
-18
-16
-41
-69
-53
-25
-25
-23
-18
-16
-2
11
13
20
23
18
30
46
50
50
50
50
57
69
76
78
74
76
83
90
83
67
60
53
41
39
57
53
13
4
27
23
-11
-25
-6
34
81
92
90
57
-11
92
446
775
798
419
-4
-39
57
18
-11
-2
-6
9
-16
-53
-55
-39
-4
-23
-37
4
9
-34
-30
25
18
-69
-120
-85
-55
-71
-55
-18
-30
-57
-25
50
0
-94
-43
20
-25
-55
-30
-48
-125
-122
-34
-37
-104
-87
-76
-85
4
41
-64
-97
-18
0
-20
2
18
4
2
11
18
27
37
32
23
23
25
34
48
50
50
53
46
37
34
37
37
39
43
53
67
71
74
83
122
275
520
659
488
136
9
92
108
85
108
111
94
104
115
85
57
64
67
55
48
55
74
78
64
46
41
50
74
85
83
81
87
78
57
57
69
62
43
30
20
4
-13
-23
-23
-27
-25
-9
2
4
13
16
11
20
27
27
32
41
48
53
53
55
69
71
55
55
64
55
43
46
57
67
78
87
90
87
87
90
83
76
81
85
78
69
50
11
16
141
398
666
615
148
-203
-141
-64
-120
-118
-87
-85
-74
-55
-50
-50
-48
-37
-20
-11
-9
-9
-11
0
11
4
0
2
-11
-16
2
16
9
-2
-4
0
2
0
-9
-37
-67
-81
-94
-115
-131
-134
-131
-122
-113
-108
-111
-111
-99
-83
-55
-30
-39
-60
-41
-23
-41
-53
-43
-32
-18
-11
-6
9
16
4
4
18
25
20
-9
-48
-48
-27
-16
-6
-4
-11
-6
9
83
326
701
877
555
30
-92
46
2
-71
-18
6
-11
0
9
4
11
25
32
30
30
34
43
53
57
64
69
71
85
113
129
122
127
138
138
141
145
136
120
101
74
46
32
27
23
18
18
27
30
23
6
-6
-4
11
11
-2
-11
-11
-20
-34
-57
-81
-81
-69
-71
-71
-69
-60
-43
-27
-13
-20
-43
-50
-46
-48
-43
-41
-50
-41
-20
-23
-27
-11
69
312
659
770
416
-32
-85
37
-11
-67
-27
-34
-83
-74
-48
-46
-34
-23
-25
-20
-18
-18
-9
0
9
27
46
57
60
64
81
92
78
64
67
74
71
74
71
57
50
46
37
37
37
30
13
-11
-18
-2
6
9
4
-13
-16
0
6
4
2
4
11
18
20
18
13
18
41
57
55
41
23
6
2
0
-6
-13
-13
-4
0
0
-2
-6
18
159
474
782
694
189
-155
-74
2
-67
-62
-32
-48
-41
-11
-11
-34
-57
-50
-23
-4
-4
0
6
13
27
46
62
67
67
78
97
111
115
94
43
20
34
37
30
27
16
2
2
13
16
11
11
18
32
46
53
53
48
55
69
76
81
81
74
78
90
92
92
90
83
71
50
43
55
57
60
74
81
81
78
62
43
46
57
67
60
30
6
0
-6
30
210
557
817
604
71
-152
-34
-25
-94
-62
-30
-55
-67
-57
-50
-43
-30
-18
-16
-11
-2
4
16
30
32
32
41
53
69
69
46
32
43
55
55
43
6
-23
-25
-27
-34
-37
-46
-62
-71
-64
-55
-50
-50
-43
-34
-25
-18
-16
-18
-9
-2
0
6
4
-13
-30
-32
-23
-16
-20
-25
-20
-23
-30
-41
-48
-43
-34
-23
-23
-43
-57
-43
-41
-60
-60
-53
-53
-55
-60
-62
-78
-81
-13
208
569
768
481
-46
-194
-48
-64
-136
-99
-99
-145
-120
-85
-92
-85
-69
-71
-69
-57
-48
-34
-20
-11
4
25
41
50
57
76
97
108
111
115
118
115
97
69
57
53
37
34
43
43
37
39
46
53
62
62
50
43
53
64
78
87
87
85
92
101
106
111
111
106
108
113
108
99
94
87
87
97
101
101
92
90
94
97
101
111
90
50
32
23
11
6
-6
-23
-16
-4
2
6
0
-6
2
46
196
511
801
689
199
-108
-48
-18
-90
-74
-37
-43
-30
-6
-13
-16
6
18
4
-2
9
20
27
37
39
23
-2
6
34
53
67
71
64
69
87
94
92
85
67
57
57
53
43
32
23
25
32
39
46
46
27
25
41
46
30
20
18
18
20
25
4
-37
-55
-34
-30
-37
-37
-37
-46
-53
-62
-92
-125
-134
-129
-127
-115
-106
-108
-108
-99
-99
-106
-106
-94
-78
-55
-32
-23
-16
-11
-13
-18
-13
-2
6
11
18
23
23
34
97
298
639
845
590
104
-55
53
48
-6
27
57
43
41
46
46
55
69
76
78
83
87
101
120
122
120
129
143
148
148
127
113
129
141
141
148
136
97
71
71
69
53
37
30
27
11
0
9
16
18
27
30
18
13
11
6
9
11
6
9
16
23
23
20
23
25
27
37
46
48
43
41
48
62
64
64
67
60
53
64
76
74
74
71
76
85
87
92
108
120
131
136
134
127
113
104
111
120
122
113
78
34
37
122
372
699
752
356
-57
-76
9
-57
-111
-87
-71
-67
-53
-46
-46
-43
-41
-32
-20
-20
-23
-13
0
9
13
13
20
39
53
62
67
53
41
41
30
20
16
-6
-34
-41
-46
-55
-67
-83
-92
-83
-76
-74
-69
-74
-71
-57
-50
-46
-46
-50
-41
-30
-27
-23
-16
-18
-13
-6
-18
-30
-25
-20
-20
-23
-20
-6
-2
-11
-2
18
27
30
9
-18
-11
11
20
25
20
16
27
41
41
43
53
67
83
104
115
115
104
87
92
111
113
99
83
76
83
138
335
666
863
615
131
-25
85
74
13
41
48
25
32
32
16
16
25
34
41
39
37
46
55
55
46
30
30
30
30
53
69
67
78
87
87
97
101
90
81
74
60
55
32
-6
-16
-4
0
4
13
18
23
34
50
60
64
64
71
78
78
71
64
64
74
76
81
85
85
85
90
92
92
101
106
106
108
111
115
118
115
120
125
118
113
99
62
46
55
53
50
48
25
0
-4
11
25
37
46
46
41
30
18
9
6
4
-2
-9
-6
34
210
539
770
560
55
-173
-83
-60
-106
-85
-71
-83
-62
-39
-37
-43
-53
-53
-37
-18
-6
-2
4
13
30
43
62
71
74
83
104
120
127
127
125
127
136
136
127
108
94
87
83
78
76
71
60
43
30
37
53
50
48
62
74
81
87
85
81
90
104
104
101
101
94
101
115
113
108
104
101
113
120
113
90
50
23
32
46
39
23
11
13
27
37
41
43
39
32
30
25
18
13
20
34
39
34
34
27
9
4
18
30
30
25
20
34
125
365
687
768
398
-57
-125
-20
-55
-94
-60
-46
-43
-27
-16
-13
-11
-2
11
25
27
23
27
46
57
64
76
83
83
97
115
129
136
136
136
143
141
122
106
101
87
69
64
55
20
-16
-18
-4
4
13
16
11
18
30
39
34
6
-11
0
11
13
18
20
18
25
30
34
37
32
9
-18
-34
-34
-30
-34
-34
-30
-25
-18
-20
-23
-20
-16
-18
-27
-43
-57
-62
-53
-39
-32
-37
-43
-48
-60
-67
-64
-67
-67
-64
-76
-97
-94
-23
201
539
685
375
-83
-173
-60
-83
-122
-87
-97
-136
-118
-87
-85
-83
-92
-113
-97
-71
-67
-55
-64
-85
-67
-34
-27
-11
11
16
23
32
20
11
25
41
48
48
41
32
23
20
20
23
23
20
20
27
43
53
60
60
64
78
92
94
97
97
101
111
111
97
87
90
97
104
101
92
81
76
81
90
90
90
90
85
87
97
106
106
99
90
81
78
90
94
67
23
13
27
18
4
9
0
-6
6
13
0
4
131
439
729
636
180
-115
-57
0
-50
-39
-9
-25
-25
2
13
18
27
27
30
46
57
67
76
76
78
90
92
87
97
108
113
125
134
136
118
76
71
92
90
71
60
41
30
37
43
41
30
27
37
48
57
62
60
55
62
69
74
81
71
53
48
57
57
39
-4
-43
-48
-37
-34
-37
-39
-39
-34
-25
-25
-41
-55
-57
-60
-60
-46
-34
-34
-27
-20
-23
-30
-39
-43
-48
-71
-83
-83
-92
-87
-6
217
544
680
361
-87
-164
-50
-74
-106
-71
-67
-71
-50
-32
-27
-23
-11
-2
4
16
27
39
46
53
67
81
81
78
92
106
118
131
136
138
136
111
87
85
53
11
6
9
0
-2
0
2
11
16
23
37
41
50
64
67
74
81
81
85
81
67
67
74
71
78
85
81
83
92
92
99
106
104
99
99
104
113
113
106
104
111
127
145
157
148
136
127
113
104
101
97
87
78
71
92
187
442
770
826
426
2
-30
30
-50
-78
-41
-60
-74
-62
-87
-120
-106
-87
-85
-81
-76
-71
-57
-41
-30
-23
-23
-18
-11
-6
4
2
-23
-34
-16
2
4
-4
-16
-20
-16
-20
-34
-43
-46
-41
-34
-25
-20
-18
-18
-6
4
11
16
11
6
20
27
27
18
-4
-9
6
9
6
6
4
0
2
6
2
-20
-48
-46
-34
-37
-32
-32
-41
-34
-9
9
20
23
9
2
9
16
20
6
-27
-43
-39
-27
48
266
599
768
472
-6
-122
-16
-50
-92
-43
-27
-43
-32
-23
-23
-2
13
13
11
11
11
11
9
6
6
11
25
41
43
32
34
46
55
62
69
67
62
55
50
46
37
18
-11
-25
-13
-4
-2
4
9
11
20
32
41
46
43
48
57
69
74
69
64
57
53
62
53
18
4
20
32
30
37
43
46
48
57
69
74
69
69
78
81
78
85
101
115
129
141
131
118
113
115
113
106
94
87
90
94
136
300
608
849
696
226
-20
62
92
20
4
0
-16
2
13
2
9
23
23
20
4
-20
-20
-6
4
9
-2
-16
-25
-23
-9
2
2
9
18
18
16
18
13
2
-2
-11
-25
-53
-92
-113
-99
-92
-99
-87
-76
-74
-62
-53
-50
-48
-46
-41
-30
-32
-50
-57
-55
-53
-46
-41
-41
-48
-50
-46
-34
-30
-27
-27
-27
-30
-46
-55
-43
-39
-37
-13
11
25
32
34
27
25
27
39
48
48
41
39
46
74
178
439
754
766
347
-27
-11
67
18
16
53
43
34
43
46
43
50
41
9
-16
-2
20
30
37
32
32
53
67
53
41
43
43
39
43
55
55
41
34
34
30
16
2
-16
-25
-23
-39
-60
-55
-48
-46
-27
-9
-2
-2
0
11
25
32
41
50
37
25
37
53
57
55
53
57
67
78
81
74
71
78
87
97
101
97
90
94
104
106
101
99
115
134
143
