1723814496.00
64.000000
-0.00
-0.00
-0.00
-0.00
-0.00
-0.00
-0.00
-0.00
-0.00
-0.00
0.00
0.01
0.01
-0.00
-0.03
-0.05
-0.05
0.00
0.13
0.36
0.66
1.01
1.37
1.72
2.06
2.40
2.79
3.24
3.80
4.42
5.06
5.66
6.20
6.68
7.15
7.68
8.31
9.14
10.09
11.04
11.88
12.56
13.14
13.76
14.65
15.96
17.91
20.32
22.90
25.38
27.58
29.57
31.68
34.32
37.81
42.54
48.15
54.10
59.83
64.97
69.58
74.14
79.34
85.71
93.76
103.00
112.62
121.73
129.77
136.75
143.30
150.75
157.77
166.64
177.95
191.79
206.97
220.57
228.25
225.36
208.53
176.87
132.76
80.05
23.07
-34.94
-92.44
-149.16
-205.23
-260.37
-313.74
-363.87
-409.83
-450.91
-486.50
-515.74
-537.23
-549.22
-549.96
-538.37
-514.21
-478.67
-433.88
-382.45
-327.02
-269.84
-212.63
-156.66
-102.95
-52.37
-5.90
35.58
71.43
101.35
125.50
144.38
158.69
169.15
176.37
180.75
182.57
182.07
179.51
175.23
169.65
163.18
156.15
148.81
141.30
133.69
126.02
118.33
110.69
103.16
95.80
88.68
81.83
75.24
68.95
62.95
57.25
51.86
46.79
42.04
37.61
33.50
29.68
26.16
22.93
19.98
17.31
14.90
12.76
10.87
9.21
7.78
6.55
5.51
4.64
3.92
3.33
2.86
2.50
2.22
2.02
1.89
1.81
1.78
1.80
1.86
1.95
2.08
2.24
2.43
2.65
2.90
3.19
3.50
3.85
4.24
4.67
5.13
5.63
6.17
6.76
7.39
8.06
8.79
9.56
10.38
11.25
12.17
13.13
14.15
15.22
16.37
17.58
18.86
20.20
21.58
22.97
24.30
25.50
26.44
27.01
27.06
26.51
25.23
23.19
20.38
16.88
12.75
8.18
3.38
-1.43
-6.03
-10.21
-13.79
-16.65
-18.74
-20.03
-20.56
-20.42
-19.73
-18.59
-17.13
-15.45
-13.63
-11.72
-9.76
-7.73
-5.68
-3.62
-1.54
0.54
2.67
4.84
7.09
9.43
11.93
14.52
17.17
19.88
22.64
25.49
28.43
31.54
34.87
38.55
42.45
46.51
50.72
55.04
59.48
64.02
68.74
73.72
79.16
84.86
90.77
96.81
102.96
109.16
115.36
121.58
127.87
134.42
140.87
147.00
152.58
157.28
160.64
162.02
160.59
155.10
147.86
139.64
130.89
121.86
112.57
102.90
92.70
81.96
70.87
59.98
49.38
39.33
29.88
20.81
11.63
1.78
-9.05
-20.78
-32.81
-44.69
-55.92
-66.33
-76.28
-86.56
-98.11
-111.52
-126.77
-143.12
-159.77
-175.85
-190.92
-205.13
-219.20
-234.26
-251.66
-272.70
-298.07
-327.30
-357.84
-385.15
-403.58
-408.21
-396.57
-369.72
-331.84
-288.69
-245.60
-206.05
-171.35
-141.29
-115.20
-92.65
-73.43
-57.30
-43.60
-31.34
-19.50
-7.54
4.47
15.93
26.09
34.42
40.90
46.00
50.48
54.98
59.87
65.05
70.06
74.28
77.16
78.42
78.13
76.70
74.58
72.23
69.83
67.30
64.45
61.07
57.07
52.58
47.83
43.09
38.61
34.52
30.82
27.37
23.94
20.23
16.04
11.29
6.04
0.54
-4.99
-10.35
-15.44
-20.28
-24.94
-29.56
-34.41
-39.84
-46.17
-53.62
-62.02
-70.70
-78.49
-83.91
-85.51
-82.24
-73.86
-60.92
-44.74
-27.05
-9.50
6.68
20.84
32.78
42.53
50.13
55.58
58.95
60.60
61.11
61.22
61.54
62.29
63.38
64.55
65.53
66.26
66.82
67.30
67.76
68.13
68.32
68.22
67.75
66.83
65.37
63.26
60.57
57.40
53.87
50.06
45.81
40.87
35.05
28.38
21.19
14.02
7.44
1.74
-3.08
-7.32
-11.43
-15.75
-20.47
-25.53
-30.75
-35.89
-40.74
-45.17
-49.17
-52.80
-56.20
-59.72
-63.72
-68.58
-74.49
-81.15
-87.64
-92.49
-94.02
-90.87
-82.61
-69.87
-54.21
-37.58
-21.67
-7.52
4.54
14.65
23.06
29.92
35.32
39.36
42.36
44.82
47.26
49.96
52.87
55.61
57.75
59.07
59.65
59.85
60.11
60.67
61.51
62.43
63.15
63.55
63.61
63.39
62.92
62.11
60.83
58.94
56.35
53.10
49.29
44.99
40.26
35.16
29.80
24.41
19.34
14.87
11.12
7.94
4.88
1.42
-2.89
-8.19
-14.30
-20.79
-27.15
-32.96
-38.06
-42.53
-46.66
-51.00
-56.19
-62.80
-71.08
-80.58
-89.96
-97.22
-100.17
-97.23
-88.06
-73.76
-56.50
-38.74
-22.47
-8.80
2.12
10.69
17.46
22.91
27.32
30.85
33.66
35.91
37.73
39.23
40.51
41.62
42.61
43.59
44.72
46.14
48.01
50.28
52.75
55.04
56.75
57.63
57.63
56.92
55.82
54.58
53.37
52.21
50.95
49.44
47.51
44.99
41.88
38.31
34.54
30.89
27.62
24.75
22.11
19.36
16.23
12.52
8.25
3.56
-1.37
-6.37
-11.34
-16.26
-21.18
-26.20
-31.39
-36.72
-42.05
-47.15
-51.89
-56.43
-61.27
-67.21
-74.92
-84.49
-95.08
-104.89
-111.60
-113.07
-108.06
-96.64
-80.21
-60.96
-41.26
-23.12
-7.75
4.44
13.65
20.46
25.50
29.32
32.31
34.67
36.52
37.94
38.96
39.63
39.98
40.01
39.76
39.39
39.17
39.37
40.21
41.64
43.32
44.77
45.47
45.15
43.86
41.90
39.72
37.58
35.56
33.52
31.24
28.61
25.74
22.81
19.97
17.23
14.37
11.14
7.40
3.20
-1.15
-5.29
-8.98
-12.24
-15.37
-18.87
-23.08
-28.14
-33.82
-39.68
-45.27
-50.34
-54.91
-59.30
-64.01
-69.50
-76.14
-84.02
-92.77
-101.52
-108.81
-112.90
-112.19
-105.79
-93.80
-77.48
-58.75
-39.73
-22.15
-7.05
5.24
14.90
22.36
27.98
32.07
34.80
36.32
36.90
36.97
36.97
37.37
38.38
39.99
41.97
44.09
46.19
48.27
50.38
52.44
54.23
55.37
55.53
54.62
52.79
50.38
47.72
44.90
41.78
38.13
33.76
28.71
23.30
17.95
13.06
8.83
5.19
1.86
-1.50
-5.18
-9.32
-13.86
-18.74
-23.81
-28.98
-34.19
-39.47
-44.92
-50.83
-57.60
-65.52
-74.49
-83.64
-91.36
-95.66
-94.84
-88.13
-76.07
-60.30
-43.02
-26.26
-11.35
1.12
11.17
19.17
25.53
30.63
34.81
38.35
41.38
43.96
46.00
47.48
48.39
48.89
49.26
49.79
50.71
52.13
53.94
55.85
57.50
58.47
58.50
57.56
55.80
53.48
50.88
48.11
45.14
41.83
38.02
33.66
28.83
23.69
18.44
13.21
8.07
3.00
-2.08
-7.28
-12.66
-18.26
-24.00
-29.70
-35.19
-40.39
-45.39
-50.61
-56.65
-64.11
-73.25
-83.54
-93.53
-101.10
-104.02
-100.75
-91.04
-76.06
-57.98
-39.24
-21.80
-6.76
5.62
15.66
23.84
30.55
36.14
40.83
44.82
48.25
51.09
53.30
54.80
55.64
56.00
56.12
56.21
56.37
56.66
57.05
57.54
58.10
58.61
58.81
58.38
57.02
54.64
51.38
47.63
43.90
40.53
37.61
34.99
32.27
29.06
25.15
20.62
15.82
11.22
7.13
3.62
0.44
-2.84
-6.65
-11.28
-16.82
-23.12
-29.87
-36.67
-43.07
-48.77
-53.74
-58.28
-63.13
-69.15
-77.03
-86.95
-98.25
-109.31
-117.86
-121.55
-118.61
-108.58
-92.45
-72.48
-51.46
-31.90
-15.37
-2.36
7.55
15.14
21.16
26.11
30.27
33.79
36.85
39.54
41.86
43.71
44.98
45.62
45.81
45.87
46.19
47.00
48.29
49.77
51.08
51.87
51.94
51.27
49.92
48.01
45.59
42.75
39.62
36.38
33.20
30.16
27.22
24.24
21.11
17.73
14.12
10.41
6.68
3.05
-0.43
-3.74
-6.92
-10.11
-13.55
-17.51
-22.19
-27.63
-33.57
-39.58
-45.25
-50.37
-55.03
-59.60
-64.56
-70.43
-77.59
-86.15
-95.78
-105.54
-113.75
-118.38
-117.46
-109.88
-95.89
-77.13
-56.17
-35.66
-17.59
-2.84
8.63
17.44
24.25
29.52
33.48
36.27
38.11
39.35
40.33
41.39
42.70
44.26
45.99
47.77
49.54
51.33
53.17
55.06
56.84
58.24
58.86
58.36
56.60
53.70
50.00
45.93
41.79
37.74
33.71
29.54
25.12
20.46
15.79
11.41
7.57
4.31
1.37
-1.72
-5.49
-10.21
-15.89
-22.09
-28.27
-34.02
-39.26
-44.37
-49.98
-56.79
-65.28
-75.44
-86.58
-97.38
-105.98
-110.36
-108.91
-100.92
-86.84
-68.34
-47.81
-27.69
-9.92
4.51
15.59
23.95
30.54
36.20
41.38
46.10
50.11
53.10
54.97
55.91
56.33
56.72
57.39
58.39
59.61
60.83
61.88
62.73
63.27
63.43
63.00
61.78
59.62
56.61
52.93
48.89
44.73
40.43
35.82
30.64
24.80
18.52
12.30
6.64
1.79
-2.46
-6.68
-11.44
-17.04
-23.28
-29.58
-35.30
-40.10
-44.11
-47.90
-52.23
-57.72
-64.60
-72.42
-80.06
-85.91
-88.21
-85.68
-77.94
-65.68
-50.47
-34.22
-18.67
-4.96
6.43
15.55
22.74
28.42
32.97
36.68
39.72
42.25
44.31
46.00
47.40
48.55
49.48
50.26
50.92
51.60
52.49
53.67
55.10
56.53
57.50
57.61
56.57
54.38
51.30
47.71
43.97
40.39
37.09
34.06
31.23
28.44
25.48
22.18
18.44
14.30
9.96
5.70
1.74
-1.85
-5.27
-8.91
-13.17
-18.35
-24.41
-31.03
-37.64
-43.72
-48.95
-53.49
-57.88
-63.01
-69.74
-78.41
-88.65
-99.19
-108.08
-113.25
-113.01
-106.61
-94.43
-77.86
-58.96
-39.91
-22.52
-7.89
3.70
12.65
19.75
25.68
30.84
35.23
38.62
40.76
41.60
41.41
40.73
40.23
40.56
42.14
45.03
48.94
53.28
57.32
60.45
62.28
62.65
61.69
59.60
56.60
52.99
49.08
45.18
41.55
38.31
35.39
32.58
29.68
26.50
23.03
19.32
15.48
11.68
8.02
4.59
1.48
-1.34
-4.00
-6.69
-9.71
-13.28
-17.53
-22.37
-27.49
-32.46
-36.87
-40.53
-43.58
-46.50
-49.99
-54.76
-61.27
-69.42
-78.48
-86.99
-93.10
-94.99
-91.40
-82.05
-67.83
-50.48
-32.13
-14.80
0.18
12.23
21.38
28.11
32.98
36.46
38.78
39.93
39.76
38.31
35.92
33.32
31.38
30.69
31.38
33.07
35.09
36.93
38.45
39.76
41.00
42.09
42.56
41.93
40.00
37.04
33.68
30.62
28.17
26.16
24.14
21.48
17.87
13.31
8.20
3.06
-1.63
-5.62
-8.97
-12.00
-15.14
-18.76
-23.06
-27.95
-33.11
-38.22
-43.01
-47.45
-51.79
-56.52
-62.22
-69.38
-78.04
-87.60
-96.76
-103.65
-106.39
-103.58
-94.83
-80.88
-63.47
-44.76
-26.82
-11.07
1.85
12.03
19.99
26.34
31.53
35.80
39.20
41.72
43.49
44.71
45.67
46.58
47.52
48.45
49.31
50.11
50.92
51.88
53.04
54.31
55.41
55.94
55.50
53.89
51.19
47.79
44.28
41.16
38.69
36.77
34.98
32.75
29.76
25.89
21.44
16.86
12.55
8.72
5.29
2.00
-1.52
-5.52
-10.14
-15.24
-20.54
-25.66
-30.31
-34.49
-38.52
-42.97
-48.42
-55.18
-63.18
-72.02
-80.94
-88.94
-94.89
-97.53
-95.79
-89.08
-77.64
-62.59
-45.78
-29.19
-14.43
-2.32
7.16
14.53
20.44
25.38
29.51
32.87
35.47
37.40
38.85
40.05
41.10
42.03
42.81
43.49
44.20
45.14
46.41
47.93
49.43
50.44
50.58
49.66
47.75
45.16
42.26
39.36
36.60
33.95
31.24
28.34
25.17
21.90
18.77
16.00
13.63
11.46
9.10
6.24
2.80
-0.95
-4.67
-7.97
-10.81
-13.41
-16.18
-19.48
-23.54
-28.40
-34.16
-40.79
-48.14
-55.70
-62.67
-68.30
-72.33
-75.33
-78.53
-83.15
-89.67
-97.21
-103.76
-106.89
-104.78
-96.89
-84.10
-68.27
-51.37
-35.07
-20.39
-7.83
2.48
10.69
16.97
21.60
24.90
27.16
28.60
29.46
30.00
30.52
31.32
32.64
34.50
36.80
39.31
41.79
44.07
46.06
47.66
48.70
48.95
48.22
46.42
43.68
40.35
36.98
34.01
31.70
29.99
28.47
26.58
23.86
20.15
15.74
11.24
7.23
4.07
1.68
-0.40
-2.73
-5.71
-9.50
-13.91
-18.62
-23.35
-27.96
-32.46
-37.05
-41.93
-47.33
-53.49
-60.49
-68.21
-76.16
-83.32
-88.31
-89.63
-86.16
-77.59
-64.64
-48.85
-32.20
-16.46
-2.82
8.28
17.07
24.05
29.69
34.30
38.00
40.73
42.46
43.20
43.09
42.49
41.81
41.49
41.83
42.88
44.48
46.39
48.30
49.85
50.60
50.08
48.05
44.67
40.58
36.70
33.81
32.12
31.24
30.33
28.63
25.81
22.03
17.81
13.63
9.76
6.15
2.65
-0.91
-4.68
-8.78
-13.35
-18.36
-23.60
-28.77
-33.54
-37.79
-41.75
-45.93
-50.91
-57.19
-64.85
-73.43
-81.98
-89.11
-93.32
-93.40
-88.69
-79.37
-66.40
-51.30
-35.77
-21.32
-8.94
0.94
8.43
14.01
18.27
21.77
24.83
27.60
30.03
32.05
33.58
34.57
35.02
34.94
34.57
34.08
33.88
34.31
35.51
37.40
39.68
41.87
43.32
43.32
41.26
37.00
31.10
24.73
19.38
16.11
15.02
15.25
15.42
14.42
11.99
8.72
5.56
3.12
1.25
-0.81
-3.86
-8.21
-13.51
-18.91
-23.67
-27.48
-30.43
-33.19
-36.43
-40.70
-46.26
-53.05
-60.62
-68.18
-74.57
-78.39
-78.36
-73.56
-63.83
-49.83
-32.86
-14.54
3.59
20.29
34.73
46.36
54.89
60.22
62.41
61.76
58.80
54.20
48.76
43.19
38.08
33.83
30.62
28.47
27.27
26.77
26.64
26.47
25.86
24.54
22.39
19.61
16.57
13.70
11.28
9.37
7.75
6.12
4.30
2.26
0.18
-1.75
-3.51
-5.24
-7.23
-9.76
-12.94
-16.69
-20.80
-25.07
-29.37
-33.66
-37.90
-42.02
-45.98
-49.86
-53.95
-58.76
-64.77
-72.15
-80.47
-88.52
-94.60
-96.88
-94.01
-85.53
-72.19
-55.57
-37.73
-20.61
-5.45
7.25
17.66
26.05
32.50
36.81
38.90
39.08
38.30
37.89
38.92
41.73
45.71
49.67
52.55
53.95
54.26
54.31
54.80
55.88
57.12
57.81
57.43
55.86
53.36
50.35
47.23
44.21
41.27
38.27
35.10
31.73
28.15
24.39
20.42
16.15
11.56
6.67
1.70
-3.03
-7.20
-10.61
-13.25
-15.30
-17.03
-18.74
-20.71
-23.22
-26.58
-31.15
-37.26
-44.92
-53.56
-62.00
-68.52
-71.46
-69.71
-63.26
-53.15
-41.17
-29.14
-18.36
-9.46
-2.25
3.68
8.72
13.12
16.92
20.07
22.46
23.79
23.80
22.48
20.20
17.87
16.54
16.96
19.20
22.55
25.95
28.59
30.17
30.94
31.32
31.44
31.07
29.86
27.67
24.80
21.88
19.42
17.50
15.72
13.49
10.33
6.23
1.59
-2.97
-6.97
-10.33
-13.29
-16.29
-19.70
-23.63
-27.90
-32.22
-36.35
-40.29
-44.30
-48.73
-54.01
-60.39
-67.88
-76.17
-84.49
-91.70
-96.34
-96.97
-92.57
-82.93
-68.80
-51.83
-34.10
-17.51
-3.40
7.78
16.27
22.73
27.77
31.82
34.99
37.26
38.70
39.50
40.01
40.67
41.77
43.44
45.65
48.19
50.82
53.31
55.45
57.09
58.05
58.20
57.43
55.71
53.09
49.79
46.08
42.20
38.29
34.36
30.32
26.06
21.56
16.92
12.29
7.81
3.49
-0.72
-4.94
-9.27
-13.71
-18.19
-22.53
-26.71
-30.79
-35.08
-40.11
-46.36
-54.00
-62.65
-71.35
-78.75
-83.42
-84.17
-80.23
-71.49
-58.53
-42.55
-25.28
-8.59
5.95
17.48
26.00
32.20
36.94
40.91
44.32
47.11
49.12
50.42
51.27
52.05
52.98
54.10
55.40
56.71
57.95
59.01
59.78
60.11
59.91
59.10
57.75
56.01
54.02
51.83
49.39
46.52
43.10
39.08
34.62
30.10
25.90
22.27
19.22
16.37
13.14
8.97
3.58
-2.89
-9.90
-16.78
-23.05
-28.56
-33.66
-38.93
-44.97
-52.20
-60.50
-69.34
-77.68
-84.14
-87.28
-85.97
-79.68
-68.79
-54.67
-39.34
-24.95
-13.04
-4.08
2.53
8.01
13.48
19.37
25.33
30.62
34.55
36.99
38.35
39.27
40.24
41.37
42.53
43.59
44.67
46.05
48.06
50.70
53.60
56.21
57.93
58.44
57.79
56.38
54.76
53.45
52.69
52.35
51.92
50.57
47.37
41.55
32.75
21.17
7.49
-7.29
-22.19
-36.42
-49.56
-61.32
-71.50
-79.89
-86.26
-90.60
-93.23
-94.76
-96.06
-98.01
-101.19
-105.78
-111.34
-116.84
-120.89
-122.01
-118.98
-111.39
-99.64
-84.95
-68.97
-53.32
-39.18
-27.14
-17.19
-9.00
-2.11
3.86
9.11
13.65
17.45
20.49
22.82
24.64
26.17
27.64
29.20
30.93
32.86
34.95
37.16
39.41
41.53
43.20
44.09
43.91
42.55
40.15
37.05
33.63
30.21
26.91
23.64
20.26
16.63
12.66
8.39
3.88
-0.82
-5.60
-10.26
-14.58
-18.47
-22.18
-26.28
-31.42
-38.01
-46.02
-54.90
-63.88
-72.05
-78.59
-82.61
-83.16
-79.39
-70.91
-58.13
-42.41
-25.77
-10.16
3.05
13.43
21.33
27.49
32.58
37.00
40.87
44.03
46.31
47.56
47.83
47.38
46.62
46.06
46.02
46.57
47.55
48.62
49.50
50.00
50.07
49.73
49.02
47.88
46.21
43.91
40.88
37.19
33.06
28.81
24.83
21.31
18.18
15.16
11.85
7.97
3.54
-1.21
-5.93
-10.39
-14.58
-18.76
-23.22
-28.23
-33.97
-40.48
-47.72
-55.45
-63.12
-69.83
-74.33
-75.24
-71.54
-62.84
-49.71
-33.65
-16.70
-0.99
11.91
21.35
27.52
31.20
33.28
34.35
34.63
34.15
32.97
31.38
29.91
29.00
28.90
29.53
30.60
31.76
32.83
33.73
34.50
35.13
35.49
35.44
34.81
33.50
31.53
28.96
25.86
22.31
18.35
14.09
9.70
5.37
1.29
-2.42
-5.77
-8.87
-11.94
-15.23
-18.89
-22.97
-27.37
-31.86
-36.21
-40.27
-44.06
-47.83
-52.03
-57.19
-63.63
-71.20
-79.08
-85.81
-89.66
-89.11
-83.45
-73.10
-59.43
-44.37
-29.71
-16.64
-5.63
3.47
10.98
17.16
22.12
25.86
28.47
30.21
31.46
32.59
33.87
35.33
36.86
38.36
39.81
41.31
43.00
44.88
46.79
48.39
49.34
49.42
48.58
46.95
44.71
41.97
38.73
35.00
30.71
25.96
20.95
15.96
11.31
7.21
3.69
0.45
-3.06
-7.48
-13.08
-19.66
-26.51
-32.66
-37.40
-40.62
-42.86
-45.03
-48.10
-52.67
-58.87
-66.37
-74.39
-81.78
-87.16
-89.01
-86.23
-78.42
-66.15
-50.89
-34.57
-18.95
-5.33
5.75
14.39
21.03
26.19
30.23
33.32
35.47
36.70
37.12
37.05
36.92
37.12
37.88
39.17
40.75
42.35
43.72
44.73
45.35
45.51
45.09
43.96
42.03
39.32
36.03
32.44
28.85
25.44
22.21
19.05
15.78
12.24
8.34
4.01
-0.76
-5.84
-11.06
-16.05
-20.48
-24.19
-27.39
-30.67
-34.88
-40.75
-48.53
-57.81
-67.51
-76.06
-81.87
-83.63
-80.60
-72.77
-60.87
-46.27
-30.65
-15.66
-2.54
8.18
16.64
23.42
29.20
34.41
39.08
42.95
45.77
47.41
48.06
48.11
47.93
47.79
47.82
48.01
48.39
49.04
50.00
51.21
52.48
53.42
53.65
52.87
51.05
48.38
45.17
41.71
38.15
34.47
30.61
26.54
22.34
18.19
14.29
10.68
7.26
3.77
-0.04
-4.26
-8.74
-13.28
-17.67
-21.91
-26.32
-31.37
-37.55
-45.10
-53.76
-62.69
-70.61
-76.04
-77.69
-74.82
-67.42
-56.32
-42.91
-28.83
-15.60
-4.20
4.98
12.10
17.65
22.17
26.05
29.43
32.29
34.53
36.14
37.19
37.80
38.11
38.23
38.24
38.26
38.48
39.04
39.99
41.12
42.02
42.21
41.39
39.48
36.77
33.65
30.52
27.61
24.92
22.32
19.56
16.35
12.41
7.68
2.35
-3.10
-7.99
-11.86
-14.58
-16.55
-18.51
-21.07
-24.55
-28.76
-33.25
-37.56
-41.52
-45.23
-49.05
-53.38
-58.54
-64.73
-71.86
-79.35
-86.08
-90.54
-91.18
-86.96
-77.82
-64.75
-49.53
-34.12
-20.08
-8.26
1.28
8.90
15.09
20.15
24.20
27.24
29.36
30.72
31.64
32.40
33.19
34.02
34.85
35.64
36.48
37.52
38.90
40.63
42.54
44.27
45.50
45.96
45.57
44.39
42.51
40.00
36.92
33.34
29.34
25.08
20.78
16.62
12.70
8.94
5.12
1.04
-3.46
-8.27
-13.11
-17.66
-21.66
-25.13
-28.32
-31.57
-35.26
-39.69
-44.98
-51.21
-58.16
-65.20
-71.24
-74.82
-74.56
-69.69
-60.35
-47.63
-33.24
-18.92
-5.94
5.02
13.84
20.75
26.06
30.06
33.05
35.25
36.92
38.21
39.23
39.97
40.43
40.59
40.58
40.56
40.72
41.18
41.87
42.61
43.11
43.10
42.45
41.20
39.55
37.72
35.90
34.15
32.36
30.38
28.06
25.30
22.05
18.32
14.15
9.64
4.95
0.29
-4.19
-8.42
-12.48
-16.58
-20.88
-25.41
-30.00
-34.39
-38.48
-42.51
-46.97
-52.40
-58.95
-66.01
-72.27
-76.04
-75.79
-70.77
-61.33
-48.68
-34.58
-20.73
-8.36
1.91
10.05
16.36
21.25
25.04
27.96
30.13
31.66
32.68
33.31
33.74
34.12
34.50
34.94
35.45
36.04
36.81
37.79
38.94
40.05
40.78
40.76
39.78
37.89
35.35
32.59
29.97
27.68
25.71
23.89
22.02
19.91
17.43
14.51
11.20
7.65
4.14
0.95
-1.81
-4.28
-6.80
-9.77
-13.40
-17.67
-22.35
-27.11
-31.70
-35.99
-39.99
-43.77
-47.58
-51.73
-56.71
-62.80
-69.89
-77.22
-83.41
-86.88
-86.34
-81.30
-72.26
-60.47
-47.50
-34.78
-23.25
-13.32
-5.02
1.79
7.32
11.71
15.13
17.78
19.85
21.55
23.06
24.46
25.75
26.89
27.84
28.59
29.18
29.72
30.32
30.99
31.65
32.09
32.07
31.44
30.19
28.48
26.56
24.65
22.85
21.12
19.37
17.43
15.25
12.83
10.16
7.33
4.35
1.26
-1.89
-5.08
-8.32
-11.66
-15.18
-18.90
-22.74
-26.53
-30.10
-33.32
-36.22
-39.03
-42.11
-45.84
-50.51
-56.12
-62.32
-68.30
-72.94
-75.08
-73.80
-68.74
-60.28
-49.28
-36.95
-24.48
-12.86
-2.75
5.54
11.98
16.79
20.29
22.81
24.60
25.78
26.45
26.70
26.74
26.85
27.27
28.12
29.41
30.97
32.65
34.27
35.65
36.63
37.05
36.76
35.73
34.04
31.85
29.40
26.87
24.34
21.84
19.30
16.66
13.89
11.01
8.05
5.04
1.93
-1.41
-5.09
-9.16
-13.54
-17.97
-22.17
-25.92
-29.16
-32.11
-35.12
-38.61
-42.99
-48.40
-54.66
-61.13
-66.69
-69.98
-69.74
-65.24
-56.64
-44.97
-31.77
-18.68
-6.93
2.88
10.65
16.61
21.04
24.23
26.43
27.94
28.98
29.73
30.29
30.61
30.73
30.69
30.63
30.75
31.07
31.56
32.11
32.57
32.86
32.96
32.87
32.54
31.88
30.74
29.00
26.65
23.72
20.36
16.72
12.95
9.18
5.50
1.99
-1.32
-4.47
-7.58
-10.82
-14.34
-18.22
-22.35
-26.52
-30.49
-34.10
-37.46
-40.92
-44.99
-50.15
-56.47
-63.51
-70.28
-75.38
-77.48
-75.67
-69.74
-60.23
-48.28
-35.29
-22.64
-11.40
-2.14
5.04
10.40
14.42
17.51
19.96
21.91
23.33
24.24
24.75
25.06
25.41
25.99
26.82
27.87
29.06
30.34
31.72
33.16
34.52
35.59
36.10
35.83
34.78
33.10
31.08
28.99
26.92
24.75
22.27
19.28
15.80
12.08
8.45
5.22
2.49
0.07
-2.34
-5.04
-8.19
-11.75
-15.55
-19.41
-23.26
-27.19
-31.36
-35.98
-41.26
-47.32
-54.14
-61.40
-68.38
-73.96
-76.82
-75.82
-70.36
-60.77
-48.20
-34.37
-21.04
-9.52
-0.37
6.49
11.58
15.47
18.53
20.88
22.49
23.33
23.58
23.51
23.46
23.67
24.19
24.92
25.78
26.72
27.83
29.20
30.75
32.27
33.42
33.90
33.56
32.45
30.80
28.90
26.96
25.05
23.12
21.02
18.55
15.61
12.26
8.69
5.25
2.21
-0.35
-2.62
-4.99
-7.87
-11.44
-15.60
-20.01
-24.22
-27.96
-31.20
-34.20
-37.39
-41.27
-46.22
-52.48
-59.85
-67.70
-74.83
-79.70
-80.82
-77.21
-68.79
-56.54
-42.13
-27.48
-14.14
-3.04
5.70
12.40
17.61
21.79
25.15
27.76
29.66
30.88
31.57
31.95
32.23
32.65
33.38
34.51
36.07
37.94
39.95
41.90
43.54
44.66
45.08
44.73
43.63
41.90
39.69
37.12
34.28
31.20
27.96
24.73
21.63
18.73
15.91
12.90
9.45
5.49
1.18
-3.06
-6.88
-10.16
-13.08
-16.01
-19.32
-23.26
-27.94
-33.48
-39.96
-47.38
-55.27
-62.65
-68.09
-70.11
-67.73
-60.95
-50.66
-38.41
-25.82
-14.05
-3.64
5.36
13.15
19.83
25.35
29.62
32.60
34.43
35.46
36.06
36.53
37.08
37.76
38.53
39.38
40.23
41.04
41.83
42.61
43.37
44.08
44.57
44.58
43.86
42.27
39.84
36.83
33.58
30.41
27.48
24.77
22.14
19.34
16.00
11.83
6.67
0.71
-5.48
-11.24
-15.99
-19.62
-22.56
-25.53
-29.26
-34.23
-40.47
-47.68
-55.30
-62.49
-68.17
-71.10
-70.15
-64.75
-55.27
-42.95
-29.60
-16.87
-5.88
3.04
10.09
15.69
20.13
23.56
26.07
27.82
29.06
30.11
31.16
32.26
33.37
34.37
35.24
36.02
36.76
37.54
38.36
39.14
39.74
40.01
39.79
39.01
37.65
35.81
33.63
31.18
28.46
25.40
21.93
18.12
14.16
10.23
6.48
2.85
-0.90
-4.96
-9.37
-13.96
-18.34
-22.21
-25.46
-28.28
-31.15
-34.64
-39.22
-45.14
-52.25
-59.95
-67.19
-72.63
-74.90
-73.07
-66.91
-57.05
-44.90
-32.11
-20.15
-9.89
-1.56
5.16
10.70
15.44
19.46
22.71
25.14
26.83
27.98
28.86
29.62
30.28
30.83
31.16
31.34
31.48
31.64
31.79
31.85
31.58
30.80
29.36
27.23
24.56
21.66
18.87
16.48
14.53
12.79
10.90
8.53
5.60
2.31
-1.00
-4.07
-6.90
-9.75
-12.94
-16.60
-20.65
-24.85
-28.90
-32.68
-36.26
-39.80
-43.64
-48.15
-53.63
-60.16
-67.41
-74.41
-79.79
-82.03
-80.00
-73.40
-62.91
-49.93
-36.19
-23.16
-11.82
-2.53
4.83
10.58
15.07
18.57
21.23
23.11
24.34
25.05
25.50
25.95
26.69
27.85
29.47
31.40
33.37
35.11
36.39
37.17
37.47
37.37
36.92
36.00
34.49
32.32
29.54
26.24
22.45
18.08
13.02
7.35
1.40
-4.25
-9.06
-12.86
-15.87
-18.58
-21.43
-24.59
-27.91
-31.25
-34.71
-38.77
-44.02
-50.75
-58.57
-66.35
-72.41
-75.14
-73.46
-67.14
-56.95
-44.30
-30.77
-17.71
-5.90
4.42
13.33
21.01
27.54
32.84
36.80
39.47
41.02
41.82
42.29
42.71
43.19
43.70
44.10
44.32
44.37
44.38
44.56
45.01
45.68
46.27
46.38
45.62
43.81
41.03
37.56
33.78
29.96
26.18
22.34
18.21
13.68
8.78
3.73
-1.15
-5.59
-9.54
-13.20
-16.93
-21.19
-26.30
-32.36
-39.25
-46.54
-53.55
-59.39
-63.03
-63.53
-60.26
-53.14
-42.82
-30.48
-17.59
-5.50
4.90
13.31
19.91
25.13
29.41
33.01
35.98
38.28
39.86
40.87
41.53
42.07
42.63
43.24
43.73
44.04
44.17
44.24
44.48
45.00
45.74
46.29
45.95
44.06
40.34
35.07
29.18
23.81
19.81
17.38
16.01
14.75
12.79
9.78
5.88
1.58
-2.70
-6.76
-10.64
-14.46
-18.32
-22.24
-26.32
-30.77
-35.87
-41.77
-48.40
-55.17
-61.14
-65.12
-66.03
-63.19
-56.56
-46.74
-34.90
-22.46
-10.70
-0.55
7.65
13.99
18.86
22.73
25.89
28.48
30.53
32.05
33.10
33.84
34.41
34.92
35.42
35.89
36.42
37.09
38.01
39.15
40.30
41.12
41.22
40.45
38.83
36.74
34.61
32.77
31.37
30.32
29.33
27.93
25.48
21.46
15.82
9.11
2.54
-2.55
-5.35
-5.99
-5.53
-5.41
-6.71
-9.61
-13.52
-17.51
-20.90
-23.71
-26.35
-29.44
-33.32
-38.05
-43.43
-49.22
-55.01
-60.09
-63.62
-64.57
-62.25
-56.51
-47.89
-37.53
-26.75
-16.69
-8.04
-0.99
4.61
9.03
12.52
15.21
17.17
18.48
19.31
19.89
20.49
21.32
22.42
23.66
24.84
25.78
26.45
26.92
27.31
27.68
27.96
27.98
27.59
26.72
25.47
24.01
22.48
20.88
19.09
16.97
14.45
11.63
8.69
5.85
3.18
0.61
-2.02
-4.83
-7.84
-10.90
-13.84
-16.60
-19.28
-22.19
-25.71
-30.11
-35.44
-41.47
-47.62
-53.09
-56.93
-58.22
-56.36
-51.21
-43.26
-33.53
-23.28
-13.65
-5.43
1.15
6.23
10.08
12.96
14.94
16.10
16.54
16.58
16.60
16.95
17.78
18.94
20.12
20.80
20.57
19.17
16.77
13.95
11.56
10.30
10.41
11.54
12.83
13.41
12.73
10.81
8.12
5.27
2.59
0.13
-2.38
-5.24
-8.50
-12.04
-15.57
-18.85
-21.77
-24.33
-26.69
-29.08
-31.67
-34.60
-37.95
-41.77
-46.01
-50.47
-54.60
-57.53
-58.30
-56.12
-50.79
-42.82
-33.29
-23.46
-14.42
-6.70
-0.46
4.47
8.30
11.11
12.93
13.86
14.11
14.08
14.20
14.80
16.00
17.62
19.32
20.72
21.56
21.86
21.78
21.63
21.64
21.83
22.06
22.12
21.77
20.73
18.70
15.44
10.96
5.67
0.42
-3.87
-6.62
-7.87
-8.38
-9.13
-10.84
-13.66
-17.13
-20.58
-23.64
-26.42
-29.41
-33.14
-37.79
-42.97
-47.91
-51.63
-53.24
-52.08
-48.04
-41.49
-33.17
-24.07
-15.14
-7.11
-0.31
5.19
9.57
12.97
15.50
17.15
17.88
17.77
17.08
16.22
15.61
15.59
16.20
17.25
18.44
19.48
20.29
20.96
21.65
22.39
23.04
23.26
22.72
21.27
19.02
16.34
13.60
10.98
8.45
5.77
2.72
-0.70
-4.34
-7.93
-11.28
-14.41
-17.49
-20.79
-24.54
-28.83
-33.56
-38.35
-42.58
-45.45
-46.16
-44.17
-39.42
-32.33
-23.70
-14.42
-5.32
3.06
10.35
16.31
20.81
23.85
25.60
26.44
26.79
27.03
27.35
27.76
28.12
28.27
28.12
27.66
27.11
26.63
26.50
26.83
27.44
28.04
28.28
27.87
26.55
24.13
20.44
15.60
10.03
4.45
-0.26
-3.57
-5.52
-6.72
-8.02
-10.07
-12.94
-16.27
-19.60
-22.75
-26.04
-30.05
-35.22
-41.43
-47.89
-53.31
-56.35
-56.02
-51.92
-44.53
-34.92
-24.43
-14.40
-5.74
1.21
6.52
10.62
13.96
16.82
19.28
21.24
22.53
23.19
23.39
23.48
23.81
24.49
25.33
25.97
26.06
25.53
24.62
23.72
23.16
22.99
22.92
22.52
21.48
19.72
17.46
15.02
12.63
10.37
8.01
5.36
2.23
-1.39
-5.28
-9.12
-12.63
-15.83
-19.04
-22.86
-27.78
-33.87
-40.73
-47.61
-53.85
-59.11
-63.37
-66.57
-68.35
-67.92
-64.46
-57.65
-48.03
-36.99
-26.24
-17.06
-9.93
-4.49
0.05
4.28
8.35
12.10
15.02
16.85
17.66
17.80
17.75
17.92
18.43
19.23
20.13
21.00
21.82
22.71
23.72
24.79
25.71
26.14
25.78
24.55
22.53
20.07
17.52
15.16
13.11
11.23
9.27
7.02
4.34
1.28
-1.91
-4.99
-7.75
-10.12
-12.25
-14.44
-17.08
-20.54
-25.03
-30.46
-36.49
-42.45
-47.47
-50.60
-51.02
-48.25
-42.34
-33.90
-23.98
-13.75
-4.24
3.87
10.43
15.59
19.63
22.81
25.22
26.86
27.74
28.04
28.03
28.06
28.40
29.10
30.03
30.95
31.68
32.20
32.60
32.96
33.25
33.22
32.51
30.92
28.54
25.66
22.80
20.29
18.20
16.37
14.46
12.14
9.14
5.19
0.15
-5.84
-12.26
-18.28
-23.07
-26.27
-28.23
-29.93
-32.46
-36.36
-41.25
-45.89
-48.70
-48.52
-44.98
-38.51
-30.09
-20.78
-11.43
-2.62
5.31
12.14
17.84
22.36
25.76
28.12
29.52
30.16
30.25
30.15
30.18
30.53
31.23
32.07
32.79
33.20
33.29
33.26
33.38
33.79
34.43
34.97
34.96
34.05
32.12
29.39
26.33
23.43
20.98
18.94
16.98
14.60
11.50
7.65
3.30
-1.10
-5.14
-8.72
-11.92
-15.09
-18.66
-22.95
-28.13
-34.08
-40.42
-46.63
-51.94
-55.43
-56.18
-53.51
-47.24
-37.97
-26.97
-15.90
-6.21
1.32
6.75
10.72
14.05
17.14
19.88
21.83
22.64
22.35
21.48
20.72
20.54
21.04
21.97
22.88
23.50
23.78
23.93
24.17
24.54
24.85
24.76
23.98
22.41
20.22
17.68
15.11
12.66
10.30
7.96
5.56
3.07
0.50
-2.23
-5.22
-8.56
-12.24
-16.02
-19.55
-22.53
-24.80
-26.55
-28.22
-30.36
-33.40
-37.48
-42.33
-47.26
-51.35
-53.56
-53.08
-49.56
-43.28
-35.02
-25.90
-16.96
-9.01
-2.47
2.63
6.46
9.29
11.41
13.03
14.31
15.34
16.14
16.70
17.09
17.42
17.90
18.69
19.80
21.12
22.42
23.51
24.30
24.77
24.94
24.83
24.38
23.58
22.44
21.07
19.58
18.04
16.37
14.50
12.32
9.77
6.92
3.84
0.60
-2.65
-5.78
-8.77
-11.71
-14.88
-18.53
-22.74
-27.29
-31.76
-35.72
-38.90
-41.27
-42.77
-43.14
-41.84
-38.24
-32.11
-23.79
-14.28
-4.84
3.43
10.02
14.97
18.62
21.35
23.32
24.65
25.25
25.20
24.65
23.80
22.82
21.90
21.15
20.74
20.81
21.42
22.48
23.75
24.84
25.38
25.19
24.30
22.94
21.40
19.80
18.11
16.18
13.84
11.04
7.90
4.59
1.35
-1.64
-4.25
-6.38
-8.03
-9.38
-10.75
-12.69
-15.72
-20.22
-26.14
-32.94
-39.61
-44.92
-47.68
-47.08
-43.10
-36.42
-28.32
-20.14
-12.83
-6.68
-1.44
3.38
8.06
12.47
16.21
18.92
20.56
21.44
22.03
22.62
23.19
23.46
23.20
22.43
21.49
20.84
20.84
21.48
22.47
23.26
23.41
22.70
21.24
19.29
17.18
15.11
13.08
11.02
8.77
6.18
3.13
-0.43
-4.47
-8.78
-13.06
-16.96
-20.22
-22.89
-25.25
-27.77
-30.95
-35.01
-39.69
-44.37
-48.10
-49.86
-48.91
-44.97
-38.31
-29.79
-20.50
-11.60
-3.92
2.09
6.42
9.36
11.33
12.67
13.58
14.16
14.35
14.13
13.50
12.56
11.50
10.57
9.88
9.52
9.44
9.43
9.42
9.38
9.40
9.55
9.80
9.98
9.81
9.10
7.80
6.16
4.44
2.82
1.31
-0.33
-2.36
-4.91
-7.94
-11.19
-14.35
-17.25
-19.94
-22.55
-25.40
-28.66
-32.47
-36.82
-41.51
-46.08
-49.91
-52.31
-52.69
-50.83
-46.73
-40.71
-33.22
-24.73
-15.86
-7.26
0.39
6.54
10.90
13.59
14.99
15.60
15.87
16.00
16.07
16.08
16.05
16.08
16.25
16.62
17.18
17.95
18.78
19.56
20.11
20.27
19.99
19.34
18.45
17.48
16.48
15.33
13.85
11.83
9.19
6.04
2.54
-1.06
-4.53
-7.75
-10.72
-13.44
-16.02
-18.56
-21.25
-24.29
-27.85
-31.86
-35.96
-39.38
-41.21
-40.61
-37.15
-30.99
-22.89
-13.92
-5.17
2.59
9.02
14.15
18.18
21.34
23.70
25.22
25.84
25.59
24.71
23.63
22.85
22.68
23.21
24.13
25.04
25.58
25.63
25.39
25.05
24.78
24.46
23.76
22.38
20.21
17.42
14.38
11.46
8.75
6.14
3.39
0.23
-3.38
-7.23
-11.02
-14.45
-17.41
-20.08
-22.81
-25.99
-29.92
-34.54
-39.48
-43.98
-47.11
-47.96
-46.00
-41.14
-33.90
-25.20
-16.08
-7.47
0.07
6.35
11.50
15.71
19.16
21.91
23.96
25.34
26.11
26.42
26.49
26.44
26.37
26.29
26.19
26.13
26.17
26.42
26.80
27.15
27.16
26.56
25.21
23.21
20.89
18.59
16.59
14.87
13.17
11.13
8.44
4.98
0.92
-3.38
-7.54
-11.26
-14.54
-17.54
-20.53
-23.82
-27.65
-32.11
-37.12
-42.36
-47.14
-50.56
-51.63
-49.60
-44.36
-36.47
-27.06
-17.50
-8.89
-1.78
3.76
8.06
11.51
14.39
16.77
18.60
19.77
20.23
20.10
19.59
19.03
18.65
18.55
18.71
18.98
19.33
19.89
20.85
22.28
23.99
25.38
25.66
24.32
21.24
16.99
12.43
8.36
5.10
2.47
-0.05
-2.96
-6.47
-10.46
-14.50
-18.24
-21.45
-24.14
-26.47
-28.71
-31.11
-33.95
-37.45
-41.70
-46.63
-51.83
-56.54
-59.83
-60.71
-58.48
-52.98
-44.69
-34.62
-24.11
-14.30
-5.93
0.81
6.17
10.53
14.14
17.06
19.19
20.41
20.85
20.76
20.48
20.29
20.18
20.10
19.94
19.73
19.60
19.77
20.24
20.83
21.20
21.02
20.16
18.80
17.23
15.79
14.57
13.44
12.19
10.61
8.57
6.11
3.26
0.09
-3.33
-6.85
-10.21
-13.16
-15.61
-17.76
-19.99
-22.84
-26.64
-31.29
-36.28
-40.65
-43.35
-43.57
-40.88
-35.36
-27.63
-18.56
-9.18
-0.40
7.17
13.19
17.62
20.71
22.77
24.11
25.01
25.60
25.93
25.98
25.82
25.56
25.39
25.50
25.97
26.81
27.81
28.74
29.41
29.70
29.65
29.27
28.56
27.47
25.93
23.86
21.29
18.27
14.87
11.17
7.22
3.11
-1.02
-4.97
-8.58
-11.73
-14.46
-16.96
-19.57
-22.77
-26.94
-32.23
-38.30
-44.28
-48.93
-51.04
-49.75
-44.88
-37.07
-27.40
-17.14
-7.33
1.35
8.61
14.37
18.73
21.82
23.83
25.00
25.55
25.72
25.70
25.61
25.52
25.47
25.47
25.55
25.71
25.94
26.20
26.37
26.37
26.11
25.56
24.75
23.77
22.70
21.58
20.42
19.06
17.36
15.12
12.16
8.44
4.11
-0.58
-5.24
-9.50
-13.21
-16.42
-19.43
-22.64
-26.43
-31.11
-36.71
-42.96
-49.25
-54.63
-57.92
-58.05
-54.45
-47.28
-37.52
-26.67
-16.32
-7.65
-1.14
3.39
6.52
8.85
10.80
12.44
13.70
14.52
14.93
15.14
15.39
15.85
16.52
17.27
17.87
18.18
18.15
17.93
17.71
17.61
17.57
17.28
16.33
14.44
11.67
8.41
5.26
2.80
1.22
0.32
-0.43
-1.55
-3.31
-5.60
-8.12
-10.54
-12.70
-14.80
-17.15
-20.16
-24.12
-29.16
-35.21
-42.02
-49.07
-55.58
-60.50
-62.70
-61.38
-56.28
-47.89
-37.34
-26.04
-15.33
-6.11
1.25
6.81
10.83
13.60
15.35
16.24
16.43
16.14
15.63
15.21
15.12
15.45
16.21
17.23
18.39
19.60
20.79
22.00
23.18
24.23
24.96
25.18
24.76
23.69
22.10
20.18
18.15
16.08
14.00
11.79
9.28
6.38
3.04
-0.69
-4.65
-8.70
-12.72
-16.70
-20.76
-25.21
-30.35
-36.25
-42.61
-48.57
-52.87
-54.35
-52.25
-46.61
-38.22
-28.28
-17.95
-8.06
0.98
9.04
16.00
21.80
26.29
29.44
31.46
32.59
33.12
33.28
33.15
32.79
32.36
32.01
31.94
32.27
32.94
33.80
34.58
34.97
34.78
33.90
32.35
30.31
28.05
25.80
23.69
21.56
19.11
16.03
12.14
7.58
2.76
-1.93
-6.18
-10.01
-13.61
-17.27
-21.22
-25.66
-30.74
-36.57
-43.06
-49.73
-55.64
-59.48
-60.05
-56.63
-49.35
-39.16
-27.50
-15.89
-5.49
3.08
9.72
14.70
18.33
20.97
22.88
24.16
24.91
25.22
25.19
24.96
24.66
24.36
24.16
24.14
24.44
25.20
26.45
28.04
29.64
30.71
30.85
29.86
27.89
25.33
22.62
20.01
17.52
14.94
12.00
8.48
4.36
-0.20
-4.99
-9.73
-14.26
-18.46
-22.38
-26.24
-30.35
-35.14
-40.92
-47.64
-54.74
-61.11
-65.37
-66.27
-63.16
-56.15
-46.17
-34.50
-22.43
-10.91
-0.49
8.58
16.15
22.06
26.20
28.54
29.25
28.68
27.24
25.29
23.09
20.80
18.59
16.63
15.15
14.39
14.50
15.48
17.15
19.11
20.92
22.15
22.47
21.79
20.13
17.65
14.61
11.31
8.04
5.01
2.26
-0.39
-3.19
-6.39
-9.99
-13.71
-17.18
-20.06
-22.48
-24.97
-28.31
-33.09
-39.30
-46.17
-52.33
-56.24
-56.72
-53.29
-46.27
-36.63
-25.61
-14.43
-4.00
5.15
12.83
19.12
24.22
28.27
31.39
33.57
34.81
35.17
34.81
34.03
33.21
32.62
32.43
32.71
33.36
34.24
35.19
35.97
36.39
36.28
35.50
34.06
32.05
29.60
26.91
24.09
21.19
18.19
15.00
11.57
7.88
4.00
0.05
-3.78
-7.42
-10.95
-14.65
-18.99
-24.37
-30.85
-38.07
-45.05
-50.48
-53.08
-51.97
-46.97
-38.66
-28.11
-16.60
-5.29
4.97
13.70
20.70
26.04
29.94
32.69
34.60
35.82
36.45
36.46
35.89
34.86
33.67
32.55
31.70
31.11
30.77
30.58
30.59
30.83
31.25
31.64
31.60
30.77
28.92
26.06
22.44
18.45
14.46
10.78
7.51
4.59
1.84
-0.98
-4.06
-7.44
-11.01
-14.65
-18.26
-21.94
-25.92
-30.46
-35.69
-41.35
-46.83
-51.18
-53.33
-52.40
-47.89
-39.94
-29.34
-17.32
-5.20
5.87
15.25
22.69
28.21
31.95
34.00
34.42
33.40
31.25
28.36
25.19
22.15
19.44
17.13
15.22
13.66
12.50
11.79
11.61
12.01
12.84
13.87
14.80
15.29
15.13
14.29
12.82
10.93
8.81
6.63
4.42
2.15
-0.33
-3.13
-6.27
-9.64
-13.02
-16.29
-19.56
-23.09
-27.13
-31.73
-36.62
-41.40
-45.86
-50.01
-54.11
-58.13
-61.50
-63.10
-61.65
-56.35
-47.46
-36.20
-24.27
-13.21
-3.78
4.01
10.53
16.14
20.79
24.22
26.15
26.58
25.89
24.70
23.56
22.77
22.33
22.06
21.84
21.69
21.78
22.26
23.20
24.37
25.44
26.07
25.98
25.12
23.58
21.56
19.28
16.94
14.59
12.22
9.70
6.88
3.69
0.14
-3.60
-7.33
-10.89
-14.21
-17.31
-20.36
-23.59
-27.24
-31.53
-36.50
-41.85
-46.97
-50.89
-52.60
-51.33
-46.82
-39.41
-29.93
-19.38
-8.78
1.11
9.81
17.02
22.61
26.62
29.18
30.54
31.04
30.95
30.54
30.01
29.40
28.77
28.09
27.29
26.31
25.19
24.05
23.11
22.53
22.34
22.36
22.24
21.65
20.47
18.77
16.85
15.01
13.32
11.72
9.93
7.66
4.69
0.93
-3.61
-8.71
-14.03
-19.15
-23.73
-27.67
-31.22
-34.92
-39.25
-44.31
-49.57
-53.92
-56.11
-55.14
-50.76
-43.44
-34.16
-24.06
-14.08
-4.83
3.33
10.22
15.82
20.10
23.13
25.05
26.03
26.26
25.93
25.21
24.31
23.46
22.82
22.50
22.47
22.58
22.69
22.67
22.58
22.53
22.62
22.80
22.83
22.38
21.11
18.91
15.96
12.69
9.55
6.85
4.55
2.39
-0.11
-3.24
-7.07
-11.32
-15.45
-19.12
-22.11
-24.63
-27.19
-30.39
-34.57
-39.67
-45.26
-50.66
-55.14
-57.90
-58.14
-55.12
-48.44
-38.33
-25.82
-12.57
-0.33
9.62
16.88
21.82
25.16
27.49
28.99
29.54
29.13
28.02
26.80
26.04
26.03
26.59
27.39
27.93
27.98
27.61
26.97
26.32
25.75
25.21
24.53
23.53
22.05
20.05
17.64
15.02
12.46
10.14
8.12
6.25
4.27
1.91
-0.97
-4.36
-8.09
-11.90
-15.58
-18.98
-22.07
-24.99
-28.04
-31.56
-35.94
-41.31
-47.42
-53.59
-58.71
-61.64
-61.49
-57.93
-51.23
-42.22
-31.92
-21.37
-11.42
-2.65
4.59
10.17
14.12
16.68
18.19
19.01
19.40
19.45
19.18
18.59
17.79
17.02
16.52
16.45
16.85
17.57
18.40
19.17
19.76
20.11
20.17
19.89
19.28
18.34
17.09
15.59
13.82
11.72
9.30
6.63
3.78
0.96
-1.84
-4.67
-7.64
-10.79
-14.02
-17.17
-20.24
-23.39
-26.89
-30.84
-35.11
-39.33
-43.22
-46.72
-50.11
-53.66
-57.24
-60.12
-61.11
-59.05
-53.48
-44.83
-34.29
-23.36
-13.20
-4.38
3.03
9.26
14.47
18.74
21.96
24.06
25.02
25.06
24.47
23.61
22.85
22.39
22.32
22.57
22.94
23.24
23.37
23.24
22.94
22.64
22.42
22.33
22.26
22.01
21.37
20.20
18.47
16.33
14.03
11.78
9.74
7.79
5.70
3.13
-0.17
-4.23
-8.81
-13.50
-17.98
-21.93
-25.33
-28.33
-31.19
-34.22
-37.69
-41.95
-47.33
-53.84
-60.87
-67.07
-70.55
-69.56
-63.33
-52.49
-38.97
-25.21
-13.14
-3.64
3.54
9.26
14.16
18.29
21.28
22.62
22.35
21.02
19.50
18.52
18.37
18.89
19.58
20.04
20.15
20.19
20.55
21.51
23.05
24.73
25.91
26.01
24.77
22.43
19.54
16.75
14.48
12.71
11.04
8.93
6.01
2.25
-2.02
-6.34
-10.37
-13.96
-17.21
-20.33
-23.53
-27.06
-31.20
-36.12
-41.83
-47.87
-53.28
-56.87
-57.53
-54.66
-48.44
-39.73
-29.69
-19.43
-9.68
-0.73
7.36
14.57
20.76
25.68
29.18
31.25
32.09
32.06
31.54
30.81
30.07
29.44
29.02
28.99
29.44
30.36
31.57
32.74
33.52
33.70
33.20
32.12
30.66
29.00
27.26
25.49
23.56
21.20
18.14
14.17
9.39
4.12
-1.07
-5.61
-9.22
-11.94
-14.17
-16.51
-19.72
-24.46
-31.14
-39.48
-48.32
-55.78
-59.74
-58.68
-52.41
-42.10
-29.79
-17.54
-6.63
2.59
10.44
17.35
23.38
28.33
31.91
34.15
35.40
36.21
36.98
37.80
38.59
39.01
38.93
38.35
37.41
36.39
35.47
34.81
34.47
34.46
34.73
35.07
35.22
34.81
33.55
31.39
28.55
25.51
22.67
20.24
18.02
15.57
12.37
8.18
3.15
-2.20
-7.19
-11.24
-14.17
-16.19
-17.85
-19.83
-22.73
-26.96
-32.49
-39.10
-46.07
-52.42
-57.00
-58.61
-56.44
-50.34
-41.15
-30.49
-20.34
-12.16
-6.34
-2.15
1.79
6.64
12.64
19.05
24.65
28.45
30.26
30.64
30.47
30.43
30.65
30.95
31.13
31.22
31.54
32.37
33.73
35.31
36.74
37.53
37.49
36.62
35.12
33.30
31.45
29.81
28.49
27.43
26.39
25.06
23.16
20.60
17.50
14.13
10.81
7.74
4.90
2.10
-0.90
-4.32
-8.17
-12.23
-16.23
-19.83
-22.88
-25.46
-27.93
-30.77
-34.52
-39.45
-45.35
-51.48
-56.67
-59.63
-59.38
-55.55
-48.52
-39.28
-29.01
-18.77
-9.27
-0.80
6.52
12.67
17.59
21.22
23.60
24.96
25.61
25.89
26.06
26.22
26.38
26.55
26.76
27.14
27.78
28.69
29.77
30.82
31.63
32.04
31.95
31.39
30.49
29.44
28.40
27.54
26.79
26.04
25.02
23.59
21.62
19.22
16.54
13.79
11.16
8.83
6.91
5.25
3.39
0.69
-3.40
-8.91
-15.20
-21.14
-25.63
-28.15
-29.04
-29.31
-30.06
-32.03
-35.36
-39.80
-45.01
-50.74
-56.70
-62.31
-66.53
-68.07
-65.90
-59.69
-50.15
-38.60
-26.69
-15.75
-6.52
0.86
6.52
10.67
13.47
15.08
15.76
15.92
15.98
16.26
16.84
17.59
18.31
18.95
19.56
20.29
21.21
22.29
23.34
24.14
24.50
24.39
23.85
22.95
21.83
20.55
19.19
17.78
16.31
14.74
12.97
10.97
8.68
6.20
3.61
1.07
-1.27
-3.28
-4.90
-6.43
-8.42
-11.53
-16.15
-22.06
-28.27
-33.51
-36.75
-37.80
-37.42
-36.99
-37.79
-40.45
-44.70
-49.52
-53.71
-56.22
-56.39
-54.00
-49.09
-41.89
-32.88
-22.72
-12.27
-2.36
6.19
12.82
17.27
19.68
20.46
20.19
19.47
18.68
18.03
17.55
17.14
16.79
16.54
16.52
16.87
17.70
18.93
20.37
21.76
22.80
23.37
23.41
23.00
22.23
21.15
19.78
18.14
16.21
14.08
11.87
9.66
7.48
5.25
2.79
-0.08
-3.46
-7.33
-11.52
-15.74
-19.72
-23.33
-26.62
-29.91
-33.60
-38.06
-43.43
-49.40
-55.25
-59.98
-62.57
-62.34
-59.10
-53.16
-45.17
-35.92
-26.10
-16.36
-7.23
0.85
7.53
12.65
16.29
18.66
20.06
20.76
21.00
20.98
20.92
21.00
21.33
21.87
22.44
22.97
23.36
23.72
24.16
24.73
25.39
26.09
26.67
26.85
26.18
24.16
20.56
15.65
10.31
5.73
2.82
1.70
1.64
1.41
-0.01
-2.90
-6.81
-10.95
-14.66
-17.87
-20.93
-24.34
-28.46
-33.34
-38.76
-44.46
-50.07
-54.99
-58.63
-60.27
-59.25
-55.35
-48.73
-40.02
-30.16
-20.17
-10.90
-2.94
3.54
8.59
12.47
15.49
17.89
19.83
21.42
22.65
23.54
24.08
24.31
24.31
24.29
24.43
24.95
25.99
27.48
29.25
30.98
32.34
33.06
33.03
32.27
30.94
29.20
27.23
25.15
23.04
20.95
18.93
16.94
14.75
11.95
8.04
2.85
-3.28
-9.48
-14.67
-18.08
-19.70
-20.24
-20.82
-22.40
-25.40
-29.69
-34.88
-40.56
-46.43
-52.13
-56.89
-59.62
-59.16
-54.84
-46.92
-36.51
-25.20
-14.58
-5.66
1.31
6.59
10.71
14.11
16.99
19.37
21.25
22.64
23.65
24.42
25.02
25.49
25.87
26.20
26.63
27.30
28.28
29.56
30.90
32.02
32.69
32.78
32.26
31.33
30.14
28.89
27.72
26.63
25.52
24.23
22.55
20.37
17.72
14.73
11.61
8.54
5.52
2.43
-0.91
-4.62
-8.60
-12.63
-16.39
-19.67
-22.46
-24.99
-27.55
-30.54
-34.25
-38.82
-44.18
-49.89
-55.10
-58.69
-59.54
-56.95
-50.93
-42.23
-32.05
-21.70
-12.15
-3.86
3.05
8.74
13.34
16.90
19.46
21.07
21.87
22.04
21.84
21.52
21.37
21.58
22.25
23.34
24.69
26.07
27.20
27.77
27.57
26.63
25.17
23.69
22.67
22.33
22.54
22.84
22.68
21.74
20.05
17.88
15.54
13.12
10.49
7.54
4.31
1.11
-1.62
-3.64
-5.11
-6.51
-8.42
-11.26
-15.07
-19.49
-23.93
-27.83
-30.88
-33.16
-35.07
-37.21
-40.12
-44.17
-49.28
-54.93
-60.17
-63.79
-64.64
-61.96
-55.61
-46.26
-35.16
-23.76
-13.30
-4.55
2.36
7.66
11.74
14.97
17.50
19.43
20.87
21.93
22.75
23.44
24.04
24.50
24.87
25.23
25.73
26.54
27.71
29.07
30.32
30.95
30.59
29.13
26.82
24.21
21.88
20.16
19.03
18.09
16.89
15.15
12.87
10.26
7.62
5.03
2.41
-0.38
-3.45
-6.70
-9.91
-12.96
-15.85
-18.71
-21.66
-24.83
-28.24
-31.98
-36.20
-41.07
-46.57
-52.27
-57.31
-60.58
-61.02
-58.10
-52.01
-43.52
-33.78
-23.90
-14.65
-6.45
0.61
6.56
11.49
15.45
18.53
20.83
22.51
23.73
24.68
25.51
26.33
27.20
28.18
29.28
30.59
32.11
33.80
35.52
37.02
38.01
38.26
37.66
36.25
34.21
31.75
29.10
26.43
23.90
21.54
19.32
17.15
14.86
12.24
9.14
5.46
1.26
-3.27
-7.81
-11.97
-15.52
-18.43
-20.90
-23.35
-26.29
-30.15
-35.17
-41.24
-47.78
-53.85
-58.26
-59.91
-58.18
-53.05
-45.21
-35.72
-25.64
-15.81
-6.72
1.44
8.58
14.62
19.55
23.37
26.09
27.67
28.06
27.41
26.08
24.71
24.02
24.48
26.08
28.34
30.58
32.27
33.30
33.88
34.29
34.68
34.93
34.82
34.18
32.96
31.26
29.18
26.79
24.15
21.41
18.65
15.99
13.40
10.71
7.73
4.36
0.68
-3.12
-6.80
-10.32
-13.72
-17.15
-20.77
-24.61
-28.66
-32.90
-37.43
-42.44
-47.99
-53.83
-59.26
-63.12
-64.19
-61.55
-55.05
-45.34
-33.73
-21.78
-10.72
-1.29
6.35
12.50
17.51
21.61
24.80
26.97
28.05
28.23
27.89
27.53
27.49
27.80
28.17
28.22
27.73
26.93
26.29
26.40
27.53
29.40
31.40
32.82
33.23
32.67
31.50
30.12
28.75
27.32
25.61
23.45
20.92
18.15
15.38
12.72
10.15
7.65
5.17
2.68
0.16
-2.51
-5.47
-8.78
-12.38
-16.09
-19.64
-22.94
-26.04
-29.13
-32.51
-36.47
-41.18
-46.71
-52.91
-59.29
-65.06
-69.11
-70.34
-68.02
-62.03
-52.97
-41.99
-30.41
-19.33
-9.51
-1.21
5.59
11.11
15.62
19.31
22.25
24.41
25.72
26.20
26.05
25.61
25.28
25.35
25.85
26.63
27.47
28.20
28.83
29.53
30.36
31.23
31.84
31.77
30.79
28.94
26.58
24.23
22.32
20.95
19.95
18.92
17.52
15.62
13.22
10.49
7.63
4.76
2.00
-0.58
-2.95
-5.09
-7.12
-9.24
-11.70
-14.62
-18.04
-21.75
-25.50
-29.09
-32.38
-35.45
-38.55
-42.10
-46.56
-52.17
-58.65
-65.08
-69.96
-71.71
-69.28
-62.53
-52.37
-40.39
-28.18
-16.88
-7.09
1.13
7.80
12.94
16.55
18.76
19.88
20.37
20.62
20.87
21.22
21.68
22.19
22.76
23.34
23.93
24.57
25.38
26.48
27.93
29.59
31.08
32.01
32.08
31.30
29.94
28.39
26.95
25.61
24.12
22.19
19.65
16.60
13.37
10.39
7.98
6.19
4.85
3.65
2.26
0.42
-1.98
-4.92
-8.34
-12.10
-16.00
-19.92
-23.74
-27.54
-31.55
-36.10
-41.45
-47.59
-54.04
-59.88
-63.92
-65.00
-62.36
-55.94
-46.40
-35.00
-23.20
-12.24
-2.91
4.59
10.45
14.96
18.40
20.89
22.43
23.16
23.33
23.32
23.53
24.21
25.35
26.79
28.26
29.54
30.57
31.38
32.06
32.67
33.13
33.34
33.16
32.53
31.49
30.17
28.62
26.83
24.65
21.90
18.52
14.70
10.75
7.06
3.85
1.06
-1.56
-4.32
-7.43
-10.87
-14.42
-17.85
-21.06
-24.14
-27.37
-31.06
-35.46
-40.62
-46.30
-51.98
-56.83
-59.84
-60.10
-57.02
-50.62
-41.56
-30.99
-20.21
-10.30
-1.84
5.07
10.62
15.14
18.82
21.69
23.75
25.02
25.64
25.89
26.04
26.30
26.79
27.49
28.32
29.24
30.20
31.21
32.26
33.30
34.18
34.75
34.80
34.24
33.07
31.39
29.31
26.86
24.05
20.83
17.31
13.67
10.16
6.98
4.11
1.36
-1.56
-4.88
-8.57
-12.41
-16.06
-19.27
-21.96
-24.30
-26.63
-29.35
-32.81
-37.12
-42.16
-47.36
-51.83
-54.52
-54.37
-50.79
-43.79
-34.11
-23.08
-12.23
-2.82
4.46
9.59
13.09
15.58
17.58
19.33
20.77
21.75
22.30
22.53
22.63
22.80
23.08
23.41
23.69
23.85
23.86
23.80
23.74
23.78
23.94
24.12
24.20
23.96
23.25
22.05
20.42
18.55
16.64
14.74
12.80
10.71
8.34
5.73
3.01
0.25
-2.59
-5.70
-9.33
-13.58
-18.31
-23.16
-27.71
-31.66
-35.07
-38.21
-41.59
-45.69
-50.77
-56.86
-63.63
-70.32
-75.92
-79.29
-79.41
-75.74
-68.40
-58.14
-46.24
-34.03
-22.66
-12.86
-4.87
1.44
6.34
10.15
13.09
15.33
16.97
18.13
18.98
19.76
20.69
21.93
23.55
25.53
27.81
30.38
33.18
36.12
39.07
41.73
43.85
45.30
46.13
46.54
46.74
46.68
46.17
44.87
42.53
39.26
35.40
31.37
27.48
23.65
19.59
14.93
9.53
3.59
-2.43
-8.05
-12.99
-17.27
-21.15
-25.01
-29.21
-34.00
-39.49
-45.66
-52.22
-58.53
-63.60
-66.22
-65.31
-60.39
-51.74
-40.45
-28.12
-16.30
-6.09
2.11
8.47
13.53
17.76
21.40
24.49
26.87
28.49
29.40
29.79
29.96
30.21
30.70
31.48
32.49
33.61
34.76
35.90
37.03
38.14
39.11
39.75
39.82
39.11
37.62
35.58
33.30
31.10
29.06
27.03
24.74
22.00
18.83
15.51
12.40
9.74
7.52
5.46
3.14
0.24
-3.37
-7.55
-11.97
-16.30
-20.27
-23.79
-26.97
-30.10
-33.53
-37.66
-42.75
-48.73
-55.17
-61.20
-65.65
-67.36
-65.46
-59.68
-50.53
-39.14
-26.97
-15.39
-5.34
2.76
8.97
13.61
16.97
19.36
21.01
22.18
23.14
24.12
25.21
26.37
27.49
28.49
29.41
30.41
31.64
33.15
34.85
36.53
38.00
39.11
39.76
39.92
39.53
38.56
37.11
35.35
33.44
31.54
29.65
27.68
25.55
23.21
20.77
18.44
16.38
14.60
12.94
11.06
8.68
5.66
2.17
-1.38
-4.56
-7.09
-9.08
-11.00
-13.50
-17.07
-21.77
-27.14
-32.43
-36.92
-40.30
-42.76
-44.97
-47.77
-51.82
-57.41
-64.20
-71.36
-77.67
-81.75
-82.42
-78.98
-71.42
-60.47
-47.51
-34.15
-21.90
-11.69
-3.81
2.05
6.52
10.21
13.44
16.25
18.54
20.22
21.31
22.02
22.54
23.02
23.51
24.01
24.62
25.50
26.78
28.45
30.35
32.12
33.46
34.14
34.05
33.24
31.80
29.91
27.74
25.52
23.45
21.65
20.11
18.65
17.08
15.19
12.98
10.57
8.13
5.84
3.76
1.80
-0.17
-2.27
-4.58
-7.12
-9.83
-12.64
-15.48
-18.32
-21.14
-23.92
-26.64
-29.31
-31.95
-34.75
-38.01
-42.06
-47.15
-53.14
-59.29
-64.44
-67.23
-66.52
-61.92
-53.82
-43.32
-31.80
-20.49
-10.19
-1.30
6.13
12.11
16.66
19.79
21.60
22.34
22.41
22.20
22.03
22.03
22.18
22.41
22.70
23.13
23.88
25.12
26.85
28.94
31.07
32.83
33.91
34.12
33.51
32.27
30.71
29.07
27.50
25.95
24.22
22.13
19.57
16.63
13.46
10.21
6.94
3.67
0.38
-2.87
-5.96
-8.90
-11.76
-14.72
-17.93
-21.37
-24.89
-28.29
-31.56
-34.92
-38.78
-43.47
-48.94
-54.66
-59.67
-62.82
-63.13
-60.05
-53.61
-44.42
-33.52
-22.12
-11.34
-1.99
5.53
11.23
15.36
18.28
20.32
21.77
22.83
23.65
24.37
25.07
25.84
26.72
27.75
28.90
30.15
31.42
32.62
33.63
34.39
34.84
34.94
34.65
33.96
32.82
31.29
29.42
27.29
24.97
22.55
19.96
17.20
14.30
11.34
8.51
6.05
4.02
2.23
0.13
-2.94
-7.38
-13.00
-19.02
-24.31
-28.01
-29.98
-30.95
-32.13
-34.74
-39.32
-45.75
-53.14
-60.34
-66.12
-69.43
-69.46
-65.77
-58.40
-48.05
-36.00
-23.84
-12.93
-4.20
2.13
6.44
9.37
11.56
13.38
14.99
16.35
17.39
18.07
18.48
18.72
18.93
19.22
19.68
20.41
21.53
23.05
24.89
26.86
28.60
29.78
30.19
29.82
28.84
27.47
25.87
24.05
21.90
19.36
16.44
13.31
10.14
7.04
3.99
0.87
-2.40
-5.85
-9.39
-12.97
-16.59
-20.26
-24.00
-27.74
-31.38
-34.85
-38.33
-42.20
-46.92
-52.73
-59.32
-65.77
-70.64
-72.48
-70.29
-63.94
-54.23
-42.61
-30.69
-19.70
-10.33
-2.65
3.58
8.69
12.89
16.31
19.01
21.14
22.86
24.26
25.35
26.05
26.33
26.27
26.18
26.44
27.33
28.98
31.23
33.72
35.88
37.09
36.87
35.11
32.11
28.61
25.37
22.91
21.23
19.86
18.25
16.07
13.40
10.68
8.24
6.11
3.91
1.15
-2.51
-7.00
-11.88
-16.62
-20.83
-24.44
-27.65
-30.84
-34.43
-38.71
-43.91
-50.09
-57.05
-64.24
-70.73
-75.27
-76.61
-73.93
-67.17
-57.10
-45.14
-32.88
-21.55
-11.84
-3.73
3.09
8.92
13.87
17.83
20.67
22.46
23.50
24.28
25.27
26.67
28.47
30.39
32.15
33.54
34.58
35.45
36.31
37.31
38.35
39.22
39.69
39.57
38.75
37.12
34.45
30.54
25.38
19.39
13.46
8.54
5.27
3.58
2.73
1.68
-0.33
-3.48
-7.36
-11.33
-15.03
-18.46
-22.01
-26.11
-31.04
-36.86
-43.43
-50.50
-57.62
-63.96
-68.52
-70.22
-68.30
-62.58
-53.65
-42.65
-30.94
-19.70
-9.66
-1.04
6.20
12.24
17.14
20.76
23.05
24.13
24.38
24.45
24.90
26.01
27.70
29.62
31.41
32.94
34.29
35.70
37.28
38.85
40.04
40.48
39.91
38.37
36.04
33.13
29.82
26.22
22.44
18.67
15.08
11.69
8.32
4.67
0.46
-4.34
-9.51
-14.63
-19.32
-23.40
-27.04
-30.65
-34.81
-40.02
-46.46
-53.97
-61.79
-68.69
-73.27
-74.23
-70.82
-63.11
-51.98
-38.84
-25.23
-12.40
-1.07
8.58
16.70
23.54
29.28
33.93
37.40
39.64
40.85
41.38
41.80
42.63
44.11
46.18
48.57
50.90
52.84
54.20
54.80
54.66
53.91
52.77
51.48
50.19
48.82
47.17
44.99
42.22
39.03
35.69
32.45
29.26
25.80
21.68
16.68
10.90
4.75
-1.23
-6.67
-11.44
-15.63
-19.65
-23.97
-29.12
-35.53
-43.38
-52.38
-61.77
-70.23
-76.19
-78.22
-75.49
-68.07
-56.94
-43.65
-29.85
-16.79
-5.11
5.09
13.95
21.66
28.21
33.55
37.63
40.57
42.67
44.27
45.67
47.04
48.46
49.93
51.50
53.16
54.89
56.71
58.46
60.09
61.49
62.53
63.16
63.29
62.81
61.47
58.89
54.76
49.09
42.44
35.82
30.35
26.74
24.87
23.95
22.85
20.73
17.48
13.67
10.11
7.30
5.17
3.09
0.29
-3.68
-8.78
-14.54
-20.37
-25.75
-30.38
-34.43
-38.28
-42.45
-47.48
-53.71
-61.20
-69.65
-78.30
-85.93
-91.16
-92.73
-89.89
-82.71
-71.99
-59.12
-45.60
-32.67
-21.08
-11.15
-2.79
4.19
10.05
15.01
19.26
22.89
25.99
28.59
30.65
32.24
33.44
34.45
35.51
36.85
38.59
40.69
42.98
45.14
46.92
48.06
48.49
48.23
47.42
46.20
44.70
43.00
41.14
39.13
36.99
34.72
32.36
29.91
27.43
24.95
22.52
20.18
17.95
15.81
13.66
11.34
8.68
5.56
1.96
-2.05
-6.31
-10.69
-15.02
-19.26
-23.38
-27.40
-31.34
-35.29
-39.30
-43.49
-48.08
-53.25
-59.20
-65.98
-73.23
-80.16
-85.59
-88.34
-87.70
-83.62
-76.57
-67.30
-56.45
-44.47
-31.82
-19.15
-7.39
2.45
9.75
14.54
17.38
19.19
20.69
22.16
23.56
24.71
25.55
26.26
27.10
28.24
29.74
31.57
33.51
35.41
37.05
38.25
38.87
38.80
38.08
36.84
35.26
33.55
31.83
30.10
28.22
26.02
23.35
20.22
16.76
13.18
9.72
6.55
3.74
1.27
-0.98
-3.18
-5.48
-8.12
-11.22
-14.81
-18.79
-22.95
-26.99
-30.75
-34.24
-37.63
-41.44
-46.04
-51.63
-58.02
-64.48
-69.87
-72.92
-72.78
-69.34
-63.23
-55.45
-46.98
-38.23
-29.16
-19.64
-9.86
-0.47
7.58
13.57
17.40
19.57
20.86
21.88
22.74
23.24
23.19
22.70
22.26
22.48
23.71
25.86
28.52
31.00
32.76
33.55
33.41
32.67
31.63
30.55
29.48
28.31
26.86
25.01
22.70
20.04
17.16
14.17
11.11
7.92
4.51
0.84
-3.00
-6.85
-10.48
-13.73
-16.59
-19.23
-21.98
-25.21
-29.23
-34.25
-40.24
-46.90
-53.58
-59.35
-63.11
-63.92
-61.25
-55.14
-46.30
-35.81
-24.89
-14.52
-5.30
2.52
8.96
14.20
18.44
21.85
24.61
26.82
28.56
29.88
30.83
31.54
32.17
32.88
33.72
34.70
35.69
36.64
37.51
38.28
38.83
38.94
38.25
36.52
33.76
30.30
26.72
23.55
21.00
18.80
16.40
13.28
9.14
4.19
-1.06
-6.06
-10.34
-13.65
-16.06
-18.06
-20.45
-24.20
-30.10
-38.26
-47.97
-57.84
-66.21
-71.75
-73.76
-72.22
-67.48
-60.09
-50.66
-39.94
-28.90
-18.59
-9.83
-2.90
2.49
7.04
11.32
15.53
19.39
22.51
24.48
25.23
25.05
24.42
23.77
23.43
23.55
24.11
25.08
26.34
27.73
29.04
30.01
30.43
30.17
29.27
27.87
26.23
24.50
22.75
20.90
18.75
16.10
12.93
9.38
5.76
2.44
-0.37
-2.74
-4.95
-7.47
-10.61
-14.43
-18.67
-22.96
-26.93
-30.51
-33.94
-37.66
-42.13
-47.63
-54.23
-61.63
-69.18
-75.80
-80.04
-80.48
-76.18
-67.21
-54.68
-40.57
-26.98
-15.42
-6.42
0.37
5.78
10.54
15.00
19.08
22.56
25.32
27.39
28.93
30.14
31.15
32.09
33.03
33.96
34.88
35.74
36.46
36.94
37.18
37.16
36.91
36.44
35.73
34.77
33.55
32.08
30.38
28.49
26.45
24.34
22.17
19.99
17.83
15.68
13.58
11.63
9.85
8.24
6.71
5.06
3.11
0.82
-1.78
-4.49
-7.22
-9.99
-12.97
-16.39
-20.33
-24.70
-29.25
-33.77
-38.17
-42.61
-47.42
-52.89
-59.12
-65.82
-72.26
-77.37
-79.97
-79.10
-74.38
-66.17
-55.48
-43.79
-32.48
-22.48
-14.16
-7.36
-1.71
3.10
7.15
10.34
12.56
13.86
14.53
15.03
15.80
17.10
18.90
20.88
22.61
23.78
24.44
24.81
25.37
26.48
28.15
30.11
31.88
32.96
33.00
31.82
29.38
25.94
22.00
18.23
15.33
13.69
13.21
13.30
13.18
12.28
10.53
8.29
6.10
4.26
2.66
0.87
-1.57
-4.86
-8.81
-12.98
-17.00
-20.61
-23.75
-26.68
-29.66
-33.05
-37.12
-42.06
-47.82
-54.04
-59.95
-64.50
-66.53
-65.12
-60.00
-51.68
-41.30
-30.21
-19.52
-9.82
-1.20
6.45
13.25
19.11
23.87
27.46
30.09
32.21
34.27
36.56
38.99
41.25
42.87
43.59
43.42
42.65
41.76
41.15
41.07
41.51
42.25
43.04
43.72
44.21
44.44
44.17
43.06
40.79
37.33
33.09
28.72
24.84
21.65
18.85
15.85
12.23
7.96
3.41
-0.94
-4.82
-8.42
-12.15
-16.29
-20.79
-25.24
-29.11
-32.21
-34.77
-37.35
-40.70
-45.34
-51.31
-58.12
-64.73
-69.93
-72.57
-71.89
-67.75
-60.64
-51.51
-41.45
-31.44
-22.13
-13.85
-6.63
-0.33
5.19
10.03
14.27
17.90
20.92
23.40
25.48
27.37
29.29
31.35
33.58
35.86
38.03
39.98
41.75
43.40
45.03
46.54
47.72
48.33
48.16
47.17
45.48
43.25
40.62
37.70
34.58
31.41
28.46
25.96
24.03
22.54
21.14
19.42
17.15
14.33
11.26
8.28
5.70
3.57
1.73
-0.13
-2.25
-4.79
-7.75
-11.04
-14.58
-18.28
-22.02
-25.75
-29.38
-32.87
-36.38
-40.26
-44.93
-50.63
-57.20
-63.80
-69.14
-71.80
-70.75
-65.71
-57.28
-46.82
-36.02
-26.43
-18.94
-13.62
-9.76
-6.38
-2.68
1.63
6.21
10.43
13.84
16.34
18.27
20.11
22.06
23.96
25.46
26.22
26.30
26.10
26.15
26.78
27.98
29.46
30.76
31.52
31.64
31.26
30.60
29.82
28.98
28.00
26.79
25.34
23.70
21.96
20.18
18.35
16.47
14.58
12.76
11.13
9.76
8.56
7.38
6.00
4.31
2.38
0.33
-1.66
-3.45
-5.07
-6.63
-8.23
-10.03
-12.06
-14.31
-16.80
-19.57
-22.71
-26.30
-30.37
-34.91
-39.87
-45.24
-51.04
-57.19
-63.31
-68.63
-71.97
-72.11
-68.30
-60.63
-50.16
-38.62
-27.70
-18.51
-11.35
-5.86
-1.42
2.32
5.37
7.55
8.76
9.24
9.47
9.93
10.89
12.26
13.74
15.03
15.98
16.67
17.37
18.29
19.51
20.99
22.56
24.05
25.40
26.49
27.24
27.53
27.17
26.13
24.51
22.59
20.69
19.05
17.67
16.38
14.90
13.02
10.79
8.40
6.18
4.42
3.19
2.34
1.57
0.51
-1.10
-3.35
-6.17
-9.37
-12.75
-16.17
-19.55
-22.93
-26.47
-30.39
-34.91
-40.21
-46.16
-52.23
-57.56
-61.08
-61.95
-59.72
-54.58
-47.20
-38.46
-29.24
-20.27
-12.12
-5.08
0.62
5.01
8.29
10.78
12.77
14.43
15.67
16.37
16.50
16.21
15.92
16.06
16.90
18.39
20.16
21.72
22.81
23.38
23.72
24.20
24.96
25.92
26.76
27.00
26.31
24.50
21.58
17.79
13.57
9.40
5.77
2.93
0.85
-0.75
-2.34
-4.26
-6.69
-9.53
-12.61
-15.73
-18.81
-21.87
-24.99
-28.36
-32.19
-36.72
-42.05
-47.91
-53.55
-57.92
-59.89
-58.65
-54.07
-46.67
-37.48
-27.72
-18.37
-10.06
-3.00
2.89
7.79
11.82
15.01
17.30
18.73
19.49
19.89
20.26
20.86
21.69
22.59
23.38
23.96
24.43
25.04
26.08
27.67
29.74
31.93
33.78
34.87
34.93
33.94
32.07
29.61
26.88
24.04
21.13
18.09
14.78
11.06
6.86
2.14
-2.97
-8.18
-13.10
-17.34
-20.72
-23.40
-25.92
-28.95
-33.05
-38.35
-44.45
-50.43
-55.13
-57.51
-56.89
-53.11
-46.58
-38.19
-29.00
-20.05
-12.09
-5.41
0.02
4.50
8.41
11.97
15.24
18.18
20.70
22.76
24.40
25.71
26.80
27.67
28.26
28.53
28.52
28.36
28.29
28.51
29.04
29.75
30.35
30.54
30.16
29.23
27.87
26.28
24.59
22.81
20.97
19.05
17.09
15.08
12.97
10.59
7.78
4.45
0.66
-3.38
-7.41
-11.22
-14.81
-18.38
-22.23
-26.71
-32.03
-38.12
-44.58
-50.69
-55.49
-58.05
-57.69
-54.19
-47.88
-39.54
-30.15
-20.71
-11.97
-4.39
1.86
6.94
11.11
14.70
17.96
20.96
23.61
25.82
27.54
28.83
29.85
30.68
31.35
31.83
32.17
32.48
33.03
33.99
35.34
36.83
38.08
38.78
38.72
37.83
36.16
33.79
30.91
27.83
24.93
22.50
20.62
19.09
17.52
15.60
13.17
10.37
7.46
4.57
1.64
-1.53
-5.22
-9.44
-13.96
-18.40
-22.43
-25.93
-28.99
-31.92
-35.09
-38.86
-43.50
-49.11
-55.56
-62.29
-68.38
-72.69
-74.18
-72.26
-67.01
-59.17
-49.91
-40.41
-31.55
-23.83
-17.34
-11.92
-7.34
-3.32
0.35
3.79
7.04
10.07
12.84
15.41
17.81
20.13
22.43
24.64
26.65
28.32
29.58
30.45
31.09
31.63
32.19
32.79
33.28
33.47
33.14
32.12
30.40
28.13
25.61
23.25
21.31
19.83
18.64
17.36
15.67
13.50
11.05
8.59
6.41
4.44
2.40
-0.11
-3.38
-7.38
-11.80
-16.23
-20.36
-24.07
-27.43
-30.71
-34.15
-38.04
-42.57
-47.83
-53.64
-59.50
-64.59
-67.94
-68.70
-66.43
-61.18
-53.51
-44.31
-34.49
-24.84
-15.91
-7.99
-1.15
4.62
9.42
13.31
16.37
18.68
20.38
21.69
22.86
24.07
25.45
26.97
28.58
30.26
32.03
33.89
35.75
37.40
38.56
38.99
38.62
37.56
36.02
34.23
32.30
30.29
28.18
25.94
23.60
21.16
18.56
15.77
12.74
9.54
6.31
3.16
0.18
-2.68
-5.56
-8.62
-11.95
-15.52
-19.15
-22.68
-26.07
-29.54
-33.47
-38.31
-44.23
-50.95
-57.59
-62.87
-65.47
-64.50
-59.71
-51.70
-41.59
-30.67
-20.12
-10.64
-2.48
4.42
10.24
15.21
19.40
22.86
25.73
28.10
30.17
32.05
33.76
35.26
36.52
37.60
38.66
39.89
41.38
43.04
44.68
45.99
46.77
46.92
46.46
45.45
43.93
41.95
39.59
36.92
34.08
31.20
28.35
25.49
22.46
19.12
15.33
11.13
6.69
2.31
-1.74
-5.36
-8.63
-11.81
-15.21
-19.08
-23.64
-28.98
-35.09
-41.80
-48.57
-54.52
-58.54
-59.57
-57.02
-50.97
-42.18
-31.80
-21.05
-10.86
-1.77
5.96
12.30
17.29
21.04
23.86
26.06
28.01
29.98
32.01
33.99
35.72
36.98
37.75
38.18
38.48
38.91
39.60
40.51
41.48
42.31
42.81
42.91
42.58
41.85
40.72
39.18
37.22
34.93
32.40
29.73
26.93
23.96
20.72
17.26
13.67
10.18
7.00
4.14
1.46
-1.39
-4.70
-8.58
-12.86
-17.17
-21.16
-24.73
-28.11
-31.86
-36.55
-42.54
-49.61
-57.09
-63.90
-68.91
-71.23
-70.37
-66.32
-59.46
-50.51
-40.34
-29.88
-20.00
-11.31
-4.22
1.25
5.35
8.49
11.10
13.54
15.95
18.33
20.58
22.52
24.07
25.17
25.84
26.18
26.34
26.53
26.93
27.64
28.60
29.63
30.47
30.91
30.90
30.46
29.70
28.70
27.49
26.06
24.41
22.55
20.57
18.53
16.46
14.36
12.21
10.00
7.82
5.70
3.73
1.90
0.08
-1.87
-4.15
-6.90
-10.15
-13.72
-17.41
-20.91
-24.02
-26.72
-29.19
-31.77
-34.98
-39.27
-44.87
-51.60
-58.82
-65.46
-70.25
-72.08
-70.29
-64.91
-56.54
-46.30
-35.46
-25.12
-16.10
-8.72
-2.90
1.71
5.57
9.04
12.25
15.22
17.89
20.27
22.46
24.62
26.77
28.85
30.68
32.08
33.02
33.56
33.78
33.74
33.39
32.63
31.38
29.60
27.35
24.80
22.12
19.46
17.02
14.87
12.99
11.25
9.49
7.62
5.68
3.77
1.99
0.37
-1.35
-3.42
-6.03
-9.16
-12.52
-15.75
-18.60
-21.05
-23.40
-26.11
-29.68
-34.40
-40.28
-46.91
-53.51
-59.00
-62.26
-62.36
-58.92
-52.12
-42.86
-32.38
-21.99
-12.68
-4.94
1.25
6.18
10.24
13.64
16.41
18.43
19.68
20.22
20.35
20.42
20.72
21.38
22.35
23.45
24.49
25.33
25.97
26.54
27.15
28.00
29.12
30.37
31.53
32.31
32.48
31.92
30.57
28.41
25.49
21.92
17.92
13.75
9.66
5.82
2.20
-1.29
-4.77
-8.22
-11.59
-14.84
-18.08
-21.58
-25.71
-30.67
-36.37
-42.31
-47.65
-51.47
-52.97
-51.67
-47.59
-41.18
-33.16
-24.43
-15.76
-7.79
-0.85
5.01
9.92
14.10
17.71
20.78
23.20
24.84
25.64
25.76
25.52
25.29
25.34
25.77
26.48
27.29
28.09
28.86
29.67
30.57
31.47
32.19
32.43
31.92
30.56
28.42
25.77
22.94
20.15
17.49
14.88
12.13
9.04
5.59
1.83
-2.01
-5.71
-9.15
-12.32
-15.32
-18.33
-21.52
-25.04
-29.06
-33.68
-38.95
-44.65
-50.16
-54.48
-56.45
-55.08
-50.08
-41.98
-32.08
-22.01
-13.16
-6.29
-1.38
2.12
4.96
7.66
10.43
13.15
15.51
17.30
18.43
19.01
19.25
19.37
19.52
19.76
20.09
20.52
21.07
21.69
22.25
22.52
22.31
21.55
20.41
19.18
18.16
17.46
16.90
16.14
14.92
13.11
10.85
8.43
6.05
3.79
1.60
-0.69
-3.17
-5.90
-8.91
-12.17
-15.66
-19.23
-22.68
-25.86
-28.80
-31.75
-35.19
-39.58
-45.07
-51.35
-57.55
-62.39
-64.63
-63.45
-58.72
-51.04
-41.55
-31.48
-21.86
-13.32
-6.10
-0.24
4.30
7.56
9.67
10.94
11.74
12.52
13.56
14.91
16.43
17.88
19.05
19.85
20.37
20.77
21.17
21.74
22.48
23.34
24.20
24.94
25.45
25.56
24.91
23.13
19.99
15.66
10.87
6.59
3.66
2.39
2.30
2.44
1.91
0.25
-2.35
-5.25
-7.95
-10.27
-12.44
-14.89
-17.87
-21.36
-25.23
-29.32
-33.67
-38.31
-43.15
-47.70
-51.18
-52.66
-51.42
-47.29
-40.61
-32.22
-23.06
-14.02
-5.79
1.24
6.91
11.23
14.39
16.68
18.38
19.73
20.85
21.77
22.48
23.01
23.40
23.78
24.28
24.94
25.73
26.54
27.22
27.74
28.11
28.35
28.45
28.24
27.47
25.99
23.84
21.29
18.74
16.45
14.43
12.38
9.89
6.67
2.75
-1.53
-5.67
-9.25
-12.07
-14.23
-16.12
-18.27
-21.22
-25.31
-30.54
-36.51
-42.38
-47.17
-49.84
-49.72
-46.59
-40.72
-32.87
-24.04
-15.23
-7.27
-0.63
4.57
8.52
11.57
14.07
16.27
18.31
20.15
21.80
23.27
24.61
25.94
27.36
28.89
30.41
31.60
32.06
31.56
30.23
28.53
27.09
26.38
26.42
26.76
26.77
25.94
24.24
22.03
19.83
17.94
16.27
14.39
11.86
8.45
4.35
0.04
-3.96
-7.32
-9.92
-12.08
-14.34
-17.27
-21.33
-26.62
-32.82
-39.27
-45.08
-49.22
-50.97
-49.88
-45.97
-39.77
-32.06
-23.74
-15.61
-8.20
-1.77
3.63
8.07
11.65
14.47
16.66
18.36
19.77
21.05
22.30
23.52
24.70
25.72
26.51
27.04
27.28
27.36
27.36
27.46
27.75
28.26
28.91
29.60
30.06
29.82
28.21
24.63
18.93
11.71
4.32
-1.72
-5.37
-6.65
-6.58
-6.59
-7.78
-10.38
-13.80
-17.17
-19.97
-22.25
-24.59
-27.50
-31.19
-35.54
-40.29
-45.26
-50.41
-55.44
-59.89
-62.89
-63.49
-61.06
-55.55
-47.61
-38.35
-28.96
-20.37
-13.07
-7.10
-2.25
1.68
4.86
7.39
9.33
10.78
11.90
12.82
13.68
14.51
15.29
15.97
16.51
16.92
17.26
17.65
18.17
18.84
19.59
20.27
20.76
20.92
20.69
20.07
19.07
17.74
16.15
14.35
12.37
10.23
7.84
5.12
2.02
-1.45
-5.10
-8.66
-11.92
-14.75
-17.19
-19.46
-21.81
-24.52
-27.78
-31.66
-36.03
-40.54
-44.59
-47.42
-48.29
-46.62
-42.30
-35.64
-27.39
-18.49
-9.82
-2.01
4.60
9.94
14.05
16.99
18.83
19.79
20.07
20.13
20.37
21.06
22.30
24.00
25.85
27.47
28.40
28.29
27.15
25.33
23.53
22.46
22.40
23.07
23.70
23.46
21.95
19.43
16.55
14.01
12.05
10.33
8.22
5.26
1.44
-2.75
-6.62
-9.71
-11.90
-13.45
-14.90
-16.76
-19.43
-23.10
-27.70
-32.90
-38.08
-42.38
-44.86
-44.78
-41.81
-36.21
-28.77
-20.50
-12.41
-5.15
1.00
6.11
10.38
13.99
16.96
19.24
20.76
21.58
21.93
22.13
22.50
23.18
24.09
25.03
25.82
26.28
26.47
26.61
26.78
27.10
27.54
27.86
27.89
27.54
26.74
25.41
23.27
19.95
15.38
9.92
4.44
-0.01
-2.76
-3.88
-4.13
-4.53
-5.83
-8.05
-10.75
-13.35
-15.64
-17.94
-20.91
-25.02
-30.27
-36.06
-41.36
-45.15
-46.58
-45.15
-40.95
-34.48
-26.61
-18.33
-10.51
-3.68
1.97
6.57
10.35
13.47
16.00
17.90
19.13
19.71
19.81
19.64
19.45
19.39
19.52
19.86
20.33
20.94
21.69
22.58
23.53
24.43
25.09
25.36
25.09
24.26
22.92
21.23
19.35
17.41
15.44
13.42
11.28
8.92
6.26
3.30
0.07
-3.37
-6.83
-10.17
-13.28
-16.11
-18.79
-21.48
-24.39
-27.70
-31.51
-35.86
-40.71
-45.87
-50.75
-54.52
-56.13
-54.74
-50.08
-42.58
-33.38
-23.85
-15.14
-7.88
-2.07
2.70
6.76
10.29
13.23
15.42
16.79
17.50
17.88
18.22
18.75
19.49
20.32
21.17
22.08
23.17
24.37
25.36
25.56
24.50
22.14
19.07
16.27
14.61
14.47
15.43
16.65
17.27
16.81
15.29
13.11
10.62
8.05
5.44
2.75
0.05
-2.52
-4.82
-6.78
-8.46
-9.97
-11.58
-13.55
-16.10
-19.40
-23.47
-28.23
-33.45
-38.86
-44.03
-48.42
-51.38
-52.36
-50.91
-47.04
-41.11
-33.69
-25.53
-17.31
-9.57
-2.82
2.61
6.58
9.06
10.34
10.79
10.89
11.05
11.44
12.13
13.02
13.98
14.87
15.67
16.45
17.28
18.33
19.64
21.16
22.75
24.20
25.26
25.59
24.70
22.20
18.02
12.68
7.27
3.08
0.97
0.93
1.98
2.70
1.87
-0.85
-4.87
-9.05
-12.44
-14.75
-16.39
-18.16
-20.62
-23.98
-28.02
-32.33
-36.57
-40.26
-42.99
-44.15
-43.13
-39.54
-33.49
-25.64
-17.03
-8.69
-1.38
4.61
9.33
12.96
15.62
17.33
18.10
18.10
17.62
17.05
16.73
16.76
17.08
17.54
18.01
18.54
19.27
20.28
21.55
22.88
23.95
24.49
24.40
23.80
22.91
21.91
20.77
19.33
17.29
14.49
10.99
6.99
2.87
-1.09
-4.72
-8.01
-11.02
-13.86
-16.62
-19.44
-22.56
-26.20
-30.53
-35.33
-40.00
-43.64
-45.24
-44.06
-39.96
-33.44
-25.50
-17.28
-9.64
-3.05
2.45
7.11
11.16
14.70
17.67
19.92
21.34
21.95
21.91
21.44
20.88
20.36
20.05
20.03
20.33
21.01
22.11
23.53
24.95
25.83
25.49
23.61
20.40
16.67
13.50
11.73
11.47
12.15
12.82
12.66
11.42
9.36
6.89
4.31
1.52
-1.75
-5.60
-9.82
-13.95
-17.53
-20.56
-23.47
-26.81
-31.07
-36.17
-41.41
-45.70
-47.94
-47.33
-43.76
-37.71
-30.11
-22.04
-14.38
-7.58
-1.77
3.22
7.59
11.47
14.82
17.51
19.42
20.58
21.12
21.23
21.13
20.97
20.85
20.91
21.30
22.13
23.45
25.10
26.80
28.13
28.72
28.46
27.39
25.83
24.15
22.62
21.35
20.28
19.19
17.78
15.72
12.71
8.75
4.18
-0.34
-4.05
-6.46
-7.64
-8.18
-8.89
-10.35
-12.64
-15.39
-18.10
-20.57
-23.06
-26.15
-30.34
-35.72
-41.86
-47.87
-52.79
-55.80
-56.28
-54.08
-49.36
-42.62
-34.63
-26.22
-18.12
-10.83
-4.52
0.88
5.46
9.29
12.35
14.55
15.89
16.49
16.61
16.61
16.77
17.21
17.92
18.76
19.58
20.35
21.12
22.01
23.11
24.33
25.42
26.07
25.98
25.08
23.63
22.01
20.60
19.58
18.78
17.87
16.44
14.25
11.25
7.70
3.93
0.30
-2.96
-5.81
-8.34
-10.74
-13.13
-15.56
-17.92
-20.12
-22.04
-23.83
-25.71
-28.04
-31.14
-35.05
-39.60
-44.29
-48.45
-51.21
-51.88
-49.98
-45.49
-38.84
-30.76
-22.15
-13.77
-6.17
0.34
5.59
9.57
12.38
14.12
15.14
15.71
16.08
16.42
16.83
17.33
17.85
18.15
18.01
17.32
16.22
15.22
14.95
15.78
17.61
19.82
21.60
22.40
22.15
21.22
20.11
19.06
17.97
16.56
14.59
12.11
9.41
6.83
4.55
2.51
0.59
-1.43
-3.59
-5.90
-8.29
-10.73
-13.29
-16.06
-19.12
-22.59
-26.42
-30.56
-34.74
-38.55
-41.46
-42.90
-42.36
-39.61
-34.72
-28.15
-20.64
-12.98
-5.82
0.45
5.79
10.36
14.34
17.88
20.91
23.31
24.99
25.95
26.37
26.52
26.60
26.70
26.84
26.93
26.93
26.92
27.03
27.36
27.83
28.05
27.53
25.89
23.12
19.71
16.51
14.27
13.30
13.28
13.44
12.97
11.43
8.83
5.63
2.35
-0.67
-3.36
-5.87
-8.34
-10.89
-13.67
-16.88
-20.76
-25.45
-30.79
-36.22
-40.79
-43.48
-43.48
-40.49
-34.82
-27.22
-18.66
-10.06
-2.11
4.70
10.13
14.12
16.78
18.43
19.50
20.41
21.44
22.52
23.51
24.14
24.37
24.43
24.69
25.45
26.83
28.61
30.35
31.67
32.36
32.46
32.17
31.64
30.84
29.63
27.86
25.45
22.54
19.33
16.07
12.97
10.08
7.38
4.79
2.19
-0.50
-3.30
-6.19
-9.13
-12.04
-14.94
-17.78
-20.54
-23.27
-26.01
-28.92
-32.29
-36.32
-41.01
-45.93
-50.23
-52.85
-52.90
-49.92
-44.13
-36.31
-27.53
-18.88
-11.18
-4.87
-0.03
3.57
6.29
8.53
10.58
12.55
14.40
16.02
17.27
18.08
18.30
17.82
16.59
14.86
13.17
12.29
12.90
15.19
18.67
22.38
25.25
26.58
26.37
25.13
23.58
22.23
21.21
20.32
19.27
17.87
16.07
13.99
11.70
9.38
7.09
4.94
3.05
1.33
-0.40
-2.44
-5.08
-8.42
-12.28
-16.32
-20.14
-23.52
-26.50
-29.28
-32.19
-35.47
-39.23
-43.43
-47.85
-52.01
-55.16
-56.47
-55.13
-50.73
-43.45
-34.09
-23.83
-13.90
-5.22
1.76
7.12
11.22
14.42
16.99
19.00
20.38
21.11
21.28
21.04
20.63
20.22
19.86
19.43
18.85
18.08
17.31
16.87
17.06
17.95
19.32
20.63
21.35
21.19
20.27
18.99
17.78
16.83
16.00
14.89
13.18
10.85
8.16
5.56
3.41
1.82
0.60
-0.64
-2.26
-4.43
-7.11
-10.00
-12.80
-15.28
-17.34
-19.09
-20.70
-22.42
-24.45
-27.06
-30.44
-34.66
-39.50
-44.34
-48.23
-50.12
-49.26
-45.44
-39.06
-30.98
-22.16
-13.50
-5.52
1.49
7.46
12.42
16.43
19.61
22.04
23.73
24.65
24.77
24.11
22.94
21.64
20.65
20.27
20.54
21.24
22.02
22.61
22.86
22.89
22.83
22.75
22.57
22.12
21.26
19.99
18.47
16.88
15.37
13.97
12.54
10.92
8.93
6.58
3.94
1.15
-1.65
-4.39
-7.08
-9.75
-12.45
-15.17
-17.90
-20.65
-23.55
-26.83
-30.73
-35.36
-40.46
-45.37
-49.14
-50.68
-49.30
-44.89
-38.01
-29.81
-21.50
-13.96
-7.57
-2.15
2.70
7.28
11.61
15.52
18.68
20.99
22.49
23.36
23.85
24.08
24.12
24.05
23.95
23.95
24.19
24.68
25.35
26.07
26.73
27.26
27.66
27.86
27.79
27.30
26.23
24.52
22.17
19.36
16.34
13.41
10.72
8.26
5.83
3.16
0.09
-3.33
-6.88
-10.27
-13.31
-16.03
-18.63
-21.40
-24.58
-28.35
-32.76
-37.71
-42.90
-47.79
-51.54
-53.23
-52.12
-47.95
-41.08
-32.40
-23.02
-13.96
-5.90
0.87
6.29
10.47
13.52
15.53
16.64
17.09
17.18
17.19
17.33
17.62
17.94
18.18
18.29
18.35
18.55
19.03
19.82
20.76
21.59
22.08
22.11
21.75
21.21
20.64
20.10
19.52
18.74
17.71
16.44
14.98
13.37
11.59
9.48
6.97
4.10
1.03
-1.96
-4.67
-7.05
-9.28
-11.66
-14.47
-17.76
-21.40
-25.15
-28.83
-32.50
-36.35
-40.66
-45.46
-50.31
-54.32
-56.41
-55.60
-51.48
-44.37
-35.17
-25.07
-15.12
-6.05
1.85
8.50
13.95
18.21
21.25
23.09
23.86
23.81
23.31
22.73
22.39
22.46
22.91
23.58
24.32
24.95
25.47
25.95
26.46
27.03
27.58
27.97
28.05
27.71
26.84
25.35
23.24
20.53
17.40
14.05
10.76
7.71
4.93
2.25
-0.51
-3.56
-7.01
-10.78
-14.75
-18.70
-22.43
-25.84
-28.99
-32.11
-35.60
-39.77
-44.71
-50.14
-55.29
-59.13
-60.54
-58.74
-53.52
-45.35
-35.23
-24.44
-14.13
-5.09
2.34
8.18
12.68
16.05
18.46
20.06
20.98
21.44
21.66
21.85
22.06
22.33
22.60
22.87
23.21
23.65
24.24
24.95
25.66
26.23
26.53
26.45
25.95
25.06
23.81
22.33
20.68
18.87
16.87
14.56
11.84
8.67
5.08
1.13
-2.99
-7.15
-11.13
-14.70
-17.79
-20.47
-23.04
-25.99
-29.81
-34.68
-40.35
-45.97
-50.39
-52.45
-51.39
-47.04
-39.92
-31.02
-21.43
-12.18
-3.92
3.00
8.50
12.65
15.56
17.43
18.57
19.34
20.09
21.04
22.11
23.07
23.60
23.54
23.01
22.29
21.71
21.44
21.44
21.49
21.36
20.86
19.94
18.68
17.13
15.43
13.62
11.73
9.66
7.27
4.29
0.58
-3.79
-8.55
-13.21
-17.36
-20.85
-23.88
-26.92
-30.60
-35.34
-41.28
-48.10
-55.00
-60.97
-64.85
-65.69
-62.92
-56.55
-47.13
-35.73
-23.59
-11.89
-1.53
7.00
13.61
18.49
22.02
24.60
26.51
27.85
28.61
28.75
28.32
27.56
26.81
26.43
26.62
27.33
28.32
29.26
29.95
30.37
30.61
30.72
30.63
30.12
28.93
26.97
24.37
21.48
18.66
16.10
13.70
11.14
8.08
4.40
0.25
-3.97
-7.79
-11.03
-13.74
-16.34
-19.37
-23.29
-28.32
-34.35
-40.91
-47.13
-51.96
-54.27
-53.26
-48.65
-40.86
-30.89
-20.05
-9.46
0.05
8.13
14.84
20.33
24.75
28.23
30.79
32.50
33.50
33.98
34.11
34.10
34.05
34.03
34.08
34.22
34.47
34.90
35.50
36.27
37.08
37.62
37.55
36.55
34.44
31.34
27.59
23.59
19.72
16.12
12.72
9.35
5.76
1.79
-2.55
-7.17
-11.90
-16.53
-20.94
-25.15
-29.24
-33.53
-38.30
-43.72
-49.64
-55.46
-60.24
-62.88
-62.49
-58.63
-51.50
-41.84
-30.74
-19.35
-8.58
0.93
8.92
15.38
20.36
24.01
26.49
27.92
28.49
28.46
28.11
27.77
27.70
28.04
28.76
29.70
30.60
31.29
31.69
31.78
31.64
31.33
30.83
30.11
29.08
27.69
25.93
23.77
21.25
18.45
15.51
12.58
9.86
7.38
5.02
2.52
-0.43
-4.01
-8.17
-12.66
-17.02
-20.95
-24.31
-27.28
-30.31
-33.97
-38.68
-44.54
-51.20
-57.87
-63.43
-66.68
-66.58
-62.57
-54.71
-43.74
-30.95
-17.86
-5.84
4.16
11.76
17.15
20.83
23.43
25.47
27.30
29.07
30.83
32.48
33.92
35.01
35.67
36.00
36.13
36.28
36.60
37.12
37.72
38.20
38.33
37.94
36.99
35.50
33.62
31.49
29.25
26.95
24.58
22.08
19.40
16.51
13.43
10.28
7.18
4.30
1.76
-0.44
-2.46
-4.57
-7.14
-10.44
-14.50
-19.12
-23.82
-28.13
-31.78
-34.89
-37.97
-41.69
-46.59
-52.74
-59.70
-66.51
-71.94
-74.80
-74.24
-69.89
-62.07
-51.60
-39.68
-27.56
-16.31
-6.59
1.36
7.63
12.42
15.96
18.48
20.20
21.35
22.20
22.92
23.61
24.26
24.77
25.12
25.38
25.69
26.25
27.15
28.32
29.61
30.77
31.58
31.90
31.67
30.85
29.55
27.87
25.96
24.05
22.28
20.67
19.07
17.15
14.61
11.35
7.60
3.89
0.76
-1.51
-3.03
-4.30
-5.95
-8.39
-11.72
-15.64
-19.62
-23.24
-26.24
-28.70
-31.03
-33.69
-37.14
-41.61
-46.91
-52.44
-57.27
-60.32
-60.71
-57.96
-52.16
-43.85
-33.93
-23.32
-12.90
-3.31
5.04
11.90
17.18
20.92
23.19
24.24
24.43
24.14
23.74
23.52
23.59
23.92
24.46
25.08
25.83
26.73
27.83
29.10
30.40
31.52
32.24
32.42
32.01
31.07
29.73
28.06
26.13
23.97
21.63
19.23
16.92
14.79
12.76
10.40
7.24
3.00
-2.21
-7.74
-12.73
-16.60
-19.31
-21.41
-23.67
-26.65
-30.41
-34.72
-39.21
-43.75
-48.33
-52.78
-56.44
-58.13
-56.58
-51.07
-41.88
-30.29
-18.08
-6.92
2.20
9.12
14.30
18.31
21.56
24.18
26.10
27.25
27.74
27.79
27.64
27.41
27.06
26.53
25.87
25.24
24.96
25.26
26.14
27.38
28.58
29.31
29.35
28.68
27.39
25.63
23.49
20.99
18.18
15.19
12.17
9.26
6.44
3.56
0.38
-3.31
-7.51
-11.93
-16.23
-20.03
-23.17
-25.78
-28.15
-30.76
-33.99
-38.08
-43.01
-48.51
-53.93
-58.35
-60.75
-60.24
-56.37
-49.30
-39.77
-28.95
-18.06
-8.06
0.47
7.40
12.87
17.13
20.38
22.78
24.44
25.51
26.15
26.55
26.83
27.03
27.05
26.88
26.54
26.25
26.24
26.65
27.43
28.37
29.09
29.23
28.47
26.69
24.05
20.95
17.89
15.37
13.54
12.21
10.94
9.29
7.03
4.22
1.14
-1.97
-5.08
-8.36
-12.00
-16.02
-20.18
-24.15
-27.63
-30.65
-33.54
-36.75
-40.75
-45.72
-51.45
-57.30
-62.35
-65.48
-65.77
-62.67
-56.19
-47.02
-36.25
-25.11
-14.69
-5.69
1.65
7.39
11.79
15.07
17.39
18.87
19.60
19.75
19.58
19.35
19.30
19.64
20.44
21.64
23.11
24.63
25.98
27.02
27.65
27.94
27.89
27.58
27.01
26.15
24.94
23.42
21.66
19.67
17.21
13.96
9.64
4.40
-1.17
-6.16
-9.80
-11.90
-12.84
-13.46
-14.46
-16.14
-18.34
-20.78
-23.38
-26.44
-30.47
-35.72
-41.85
-47.94
-52.68
-54.87
-53.80
-49.34
-42.07
-32.95
-23.05
-13.35
-4.48
3.22
9.65
14.85
19.01
22.27
24.77
26.58
27.69
28.05
27.77
27.03
26.21
25.67
25.61
26.02
26.66
27.25
27.70
28.09
28.56
29.15
29.62
29.51
28.41
26.19
23.13
19.80
16.74
14.17
11.92
9.55
6.61
2.92
-1.43
-6.11
-10.73
-15.06
-18.93
-22.35
-25.41
-28.30
-31.31
-34.80
-38.97
-43.83
-48.98
-53.65
-56.88
-57.71
-55.48
-50.02
-41.68
-31.31
-20.16
-9.45
-0.12
7.37
13.15
17.70
21.54
24.97
27.95
30.19
31.46
31.74
31.27
30.44
29.68
29.13
28.89
28.90
29.09
29.48
30.13
31.05
32.07
32.71
32.37
30.62
27.49
23.58
19.81
16.98
15.35
14.56
13.77
12.26
9.74
6.46
2.95
-0.36
-3.41
-6.41
-9.65
-13.19
-16.87
-20.48
-23.93
-27.41
-31.27
-35.86
-41.25
-47.01
-52.27
-55.82
-56.60
-53.93
-47.87
-39.18
-29.11
-19.00
-10.01
-2.76
2.58
6.31
8.96
11.09
13.14
15.29
17.44
19.34
20.74
21.56
21.96
22.28
22.80
23.68
24.82
25.99
26.91
27.42
27.45
27.08
26.51
25.81
25.10
24.42
23.70
22.91
21.98
20.82
19.22
16.74
12.92
7.62
1.28
-5.08
-10.20
-13.23
-14.18
-13.95
-13.92
-15.09
-17.66
-21.03
-24.30
-26.92
-29.07
-31.55
-35.23
-40.48
-46.88
-53.33
-58.45
-61.03
-60.26
-56.19
-49.32
-40.70
-31.37
-22.22
-13.76
-6.17
0.58
6.52
11.61
15.77
18.92
21.11
22.49
23.26
23.64
23.75
23.71
23.63
23.65
23.93
24.64
25.82
27.44
29.34
31.20
32.76
33.69
33.79
32.98
31.36
29.16
26.63
24.00
21.41
18.88
16.42
13.99
11.59
9.14
6.50
3.56
0.19
-3.60
-7.59
-11.48
-14.96
-17.85
-20.27
-22.59
-25.26
-28.75
-33.27
-38.67
-44.40
-49.49
-52.83
-53.44
-50.75
-44.83
-36.35
-26.40
-16.24
-6.88
1.06
7.40
12.32
16.19
19.35
21.99
24.16
25.73
26.68
27.01
26.95
26.83
26.95
27.44
28.33
29.45
30.47
30.95
30.49
28.92
26.53
23.99
22.15
21.59
22.31
23.68
24.76
24.75
23.41
21.03
18.15
15.21
12.31
9.35
6.21
2.93
-0.34
-3.39
-6.22
-8.96
-11.67
-14.50
-17.35
-20.12
-22.77
-25.46
-28.46
-32.14
-36.73
-42.18
-48.09
-53.62
-57.70
-59.32
-57.80
-52.95
-45.21
-35.39
-24.57
-13.85
-4.16
3.86
9.96
14.29
17.32
19.59
21.61
23.62
25.57
27.29
28.61
29.39
29.71
29.63
29.32
28.85
28.42
28.25
28.58
29.56
31.17
33.14
34.82
35.43
34.26
31.11
26.55
21.79
18.15
16.49
16.67
17.75
18.38
17.60
15.22
11.84
8.34
5.32
2.91
0.71
-1.66
-4.42
-7.42
-10.44
-13.32
-16.15
-19.07
-22.28
-25.77
-29.37
-32.84
-36.04
-39.06
-42.22
-45.97
-50.53
-55.77
-60.99
-65.02
-66.69
-65.07
-59.92
-51.72
-41.50
-30.47
-19.79
-10.27
-2.32
3.94
8.67
12.16
14.73
16.68
18.24
19.50
20.48
21.20
21.69
22.10
22.54
23.11
23.77
24.43
25.00
25.47
25.84
26.09
26.15
25.87
25.11
23.83
22.12
20.30
18.61
17.22
16.10
15.01
13.63
11.77
9.39
6.67
3.95
1.55
-0.36
-1.87
-3.23
-4.80
-6.82
-9.42
-12.52
-15.94
-19.45
-22.83
-25.92
-28.74
-31.50
-34.62
-38.52
-43.39
-48.83
-53.96
-57.40
-57.90
-54.74
-47.93
-38.25
-26.97
-15.55
-5.40
2.49
7.72
10.67
12.30
13.75
15.78
18.50
21.32
23.42
24.32
24.16
23.61
23.39
23.86
24.79
25.71
26.20
26.21
26.06
26.10
26.41
26.80
26.92
26.37
25.04
22.98
20.45
17.70
14.89
12.08
9.28
6.46
3.54
0.46
-2.85
-6.45
-10.30
-14.26
-18.06
-21.43
-24.26
-26.65
-28.98
-31.78
-35.47
-40.22
-45.72
-51.21
-55.58
-57.68
-56.67
-52.25
-44.80
-35.26
-24.86
-14.75
-5.70
1.87
8.02
12.92
16.74
19.66
21.81
23.28
24.11
24.16
23.23
21.33
18.79
16.41
15.12
15.50
17.52
20.49
23.36
25.34
26.22
26.26
25.93
25.43
24.57
22.97
20.39
17.04
13.51
10.39
7.88
5.79
3.62
0.80
-2.88
-7.27
-11.96
-16.41
-20.32
-23.66
-26.62
-29.57
-32.94
-37.03
-42.03
-47.79
-53.76
-58.96
-62.14
-62.13
-58.25
-50.67
-40.40
-28.97
-17.92
-8.32
-0.52
5.72
10.91
15.52
19.73
23.41
26.34
28.38
29.53
29.96
29.88
29.46
28.77
27.88
26.80
25.66
24.61
23.82
23.38
23.21
23.06
22.62
21.65
20.03
17.89
15.45
13.04
10.84
8.88
6.97
4.90
2.38
-0.67
-4.12
-7.77
-11.31
-14.56
-17.49
-20.18
-22.78
-25.46
-28.38
-31.72
-35.73
-40.55
-46.18
-52.15
-57.59
-61.30
-62.05
-59.15
-52.54
-43.01
-31.83
-20.38
-9.70
-0.36
7.34
13.18
16.87
18.29
17.72
16.04
14.45
14.02
15.24
17.78
20.78
23.35
25.06
26.05
26.77
27.66
28.81
30.01
30.91
31.23
30.82
29.69
27.90
25.55
22.94
20.27
17.77
15.46
13.17
10.58
7.46
3.68
-0.57
-4.94
-9.04
-12.62
-15.66
-18.48
-21.48
-25.10
-29.64
-35.16
-41.41
-47.93
-53.97
-58.57
-60.72
-59.56
-54.65
-46.25
-35.26
-23.04
-11.11
-0.57
8.00
14.60
19.58
23.36
26.32
28.61
30.32
31.50
32.31
32.90
33.48
34.18
34.88
35.30
35.07
34.00
32.30
30.56
29.50
29.63
30.86
32.52
33.63
33.41
31.65
28.80
25.64
22.82
20.59
18.69
16.58
13.84
10.27
6.06
1.59
-2.75
-6.65
-10.05
-13.13
-16.16
-19.45
-23.29
-27.90
-33.36
-39.58
-46.10
-52.11
-56.45
-57.92
-55.66
-49.53
-40.21
-29.03
-17.49
-6.85
2.19
9.49
15.31
19.97
23.78
26.91
29.41
31.33
32.77
33.84
34.71
35.49
36.23
36.98
37.67
38.26
38.69
38.96
39.09
39.12
38.99
38.59
37.79
36.46
34.61
32.32
29.72
26.95
24.12
21.23
18.32
15.33
12.24
9.06
5.82
2.66
-0.34
-3.15
-5.90
-8.81
-12.15
-16.03
-20.27
-24.59
-28.63
-32.21
-35.51
-38.91
-42.93
-47.92
-53.85
-60.21
-66.08
-70.26
-71.54
-69.19
-62.95
-53.36
-41.53
-28.77
-16.35
-5.22
4.01
10.93
15.41
17.59
18.03
17.62
17.44
18.25
20.34
23.33
26.48
29.09
30.86
31.89
32.59
33.30
34.11
34.97
35.71
36.29
36.79
37.24
37.53
37.45
36.72
35.14
32.76
29.76
26.49
23.24
20.15
17.28
14.58
11.97
9.44
6.94
4.40
1.72
-1.23
-4.50
-7.98
-11.48
-14.72
-17.52
-19.86
-21.92
-24.02
-26.63
-30.08
-34.59
-40.04
-45.91
-51.31
-55.10
-56.16
-53.79
-47.91
-39.15
-28.66
-17.78
-7.57
1.32
8.72
14.75
19.52
23.11
25.45
26.45
26.22
25.06
23.50
22.18
21.59
21.98
23.28
25.17
27.22
29.08
30.58
31.65
32.35
32.67
32.58
32.05
31.11
29.84
28.37
26.77
24.99
22.92
20.44
17.50
14.17
10.59
6.96
3.43
0.04
-3.20
-6.32
-9.37
-12.31
-15.09
-17.71
-20.23
-22.83
-25.74
-29.16
-33.21
-37.89
-43.07
-48.44
-53.48
-57.44
-59.42
-58.49
-54.12
-46.33
-35.83
-23.85
-11.73
-0.60
8.92
16.68
22.85
27.60
30.98
32.99
33.66
33.17
31.94
30.48
29.26
28.54
28.34
28.49
28.77
29.03
29.28
29.67
30.31
31.22
32.20
32.90
33.01
32.38
31.09
29.46
27.82
26.33
24.91
23.25
21.06
18.16
14.60
10.66
6.71
3.10
-0.02
-2.65
-5.03
-7.49
-10.31
-13.65
-17.41
-21.31
-24.98
-28.16
-30.89
-33.50
-36.48
-40.34
-45.38
-51.55
-58.28
-64.53
-68.92
-70.15
-67.35
-60.52
-50.52
-38.83
-27.03
-16.33
-7.30
-0.00
5.74
10.19
13.50
15.78
17.26
18.23
19.01
19.85
20.79
21.79
22.82
23.83
24.78
25.70
26.56
27.36
28.15
28.94
29.73
30.38
30.63
30.28
29.16
27.30
24.92
22.31
19.77
17.48
15.44
13.53
11.56
9.37
6.88
4.15
1.35
-1.36
-3.81
-5.95
-7.90
-9.81
-11.83
-14.03
-16.34
-18.67
-20.99
-23.46
-26.37
-30.01
-34.58
-39.91
-45.42
-50.26
-53.50
-54.42
-52.73
-48.48
-42.05
-34.00
-24.90
-15.39
-6.16
2.10
8.83
13.72
16.85
18.57
19.37
19.65
19.62
19.35
18.89
18.33
17.83
17.55
17.57
17.89
18.52
19.39
20.48
21.66
22.72
23.37
23.35
22.51
20.94
18.85
16.55
14.32
12.30
10.45
8.61
6.52
4.02
1.10
-2.12
-5.50
-8.88
-12.26
-15.63
-18.93
-21.97
-24.51
-26.42
-27.91
-29.51
-31.91
-35.61
-40.48
-45.76
-50.18
-52.42
-51.65
-47.74
-41.24
-33.11
-24.40
-15.89
-8.10
-1.26
4.55
9.28
12.93
15.59
17.42
18.62
19.38
19.84
20.05
20.01
19.69
19.15
18.45
17.79
17.39
17.40
17.85
18.68
19.78
20.97
22.13
23.11
23.77
23.94
23.45
22.21
20.31
17.97
15.47
13.00
10.63
8.22
5.58
2.60
-0.67
-4.04
-7.27
-10.16
-12.78
-15.34
-18.17
-21.53
-25.52
-30.05
-34.96
-40.09
-45.20
-49.89
-53.51
-55.15
-53.96
-49.50
-42.04
-32.54
-22.34
-12.72
-4.50
2.10
7.24
11.24
14.38
16.74
18.42
19.50
20.08
20.34
20.43
20.47
20.52
20.61
20.75
20.93
21.17
21.47
21.87
22.35
22.79
23.07
23.02
22.57
21.75
20.64
19.28
17.69
15.75
13.36
10.60
7.59
4.55
1.71
-0.84
-3.08
-5.07
-6.92
-8.73
-10.68
-12.97
-15.76
-19.01
-22.49
-25.84
-28.82
-31.52
-34.35
-37.94
-42.71
-48.56
-54.70
-59.81
-62.47
-61.68
-57.21
-49.57
-39.94
-29.59
-19.58
-10.56
-2.80
3.70
8.94
12.90
15.56
17.00
17.54
17.56
17.48
17.56
17.85
18.27
18.69
19.01
19.23
19.44
19.76
20.27
21.05
22.03
23.08
23.97
24.45
24.35
23.59
22.20
20.30
18.02
15.49
12.87
10.30
7.90
5.78
3.91
2.20
0.56
-1.17
-3.03
-5.04
-7.20
-9.46
-11.76
-14.00
-16.11
-18.13
-20.28
-22.95
-26.53
-31.22
-36.86
-42.84
-48.24
-51.98
-53.20
-51.37
-46.46
-38.97
-29.70
-19.64
-9.78
-0.93
6.36
11.85
15.56
17.77
18.88
19.38
19.65
19.93
20.29
20.64
20.83
20.84
20.69
20.55
20.64
21.05
21.81
22.90
24.19
25.54
26.74
27.55
27.75
27.26
26.18
24.77
23.35
22.06
20.88
19.60
17.94
15.75
13.07
10.06
7.01
4.15
1.59
-0.73
-2.99
-5.42
-8.20
-11.41
-14.93
-18.48
-21.84
-24.85
-27.66
-30.61
-34.12
-38.49
-43.74
-49.53
-55.12
-59.52
-61.71
-60.84
-56.55
-49.06
-39.20
-28.18
-17.24
-7.40
0.83
7.42
12.59
16.67
19.92
22.47
24.34
25.53
26.06
26.04
25.67
25.14
24.70
24.52
24.72
25.34
26.33
27.61
29.05
30.51
31.81
32.82
33.35
33.31
32.70
31.58
30.15
28.60
27.05
25.52
23.89
21.97
19.55
16.57
13.03
9.13
5.14
1.31
-2.09
-4.99
-7.46
-9.74
-12.15
-14.92
-18.13
-21.59
-25.05
-28.22
-31.11
-33.90
-36.97
-40.74
-45.38
-50.78
-56.47
-61.68
-65.51
-67.09
-65.77
-61.27
-53.83
-44.11
-33.14
-22.05
-11.79
-3.02
3.99
9.38
13.37
16.32
18.42
19.80
20.51
20.61
20.24
19.65
19.18
19.11
19.63
20.75
22.32
24.12
25.94
27.63
29.13
30.38
31.29
31.77
31.69
30.99
29.71
27.99
26.00
23.91
21.78
19.58
17.26
14.76
12.07
9.18
6.10
2.88
-0.46
-3.83
-7.14
-10.30
-13.26
-16.03
-18.65
-21.20
-23.76
-26.54
-29.74
-33.63
-38.38
-43.84
-49.49
-54.39
-57.38
-57.49
-54.25
-47.84
-39.03
-28.94
-18.61
-8.85
-0.14
7.26
13.22
17.66
20.65
22.41
23.28
23.64
23.77
23.81
23.76
23.59
23.38
23.30
23.56
24.25
25.32
26.59
27.86
28.94
29.73
30.17
30.15
29.54
28.27
26.34
23.90
21.17
18.38
15.65
12.99
10.28
7.34
4.05
0.38
-3.59
-7.71
-11.78
-15.64
-19.16
-22.34
-25.29
-28.21
-31.43
-35.31
-40.15
-46.02
-52.62
-59.12
-64.32
-66.91
-65.90
-61.02
-52.77
-42.32
-31.07
-20.17
-10.37
-1.91
5.29
11.35
16.36
20.40
23.51
25.85
27.56
28.79
29.65
30.18
30.49
30.74
31.17
31.94
33.12
34.54
35.92
36.92
37.33
37.11
36.38
35.29
33.90
32.19
30.10
27.69
25.13
22.63
20.32
18.13
15.79
13.05
9.79
6.14
2.33
-1.43
-5.11
-8.81
-12.66
-16.67
-20.68
-24.54
-28.21
-31.88
-35.97
-40.92
-46.91
-53.69
-60.51
-66.20
-69.44
-69.17
-64.85
-56.70
-45.53
-32.66
-19.49
-7.17
3.36
11.54
17.12
20.23
21.41
21.57
21.63
22.31
23.83
25.89
27.99
29.71
30.93
31.84
32.73
33.80
35.03
36.22
37.16
37.75
37.95
37.72
36.97
35.59
33.64
31.30
28.85
26.54
24.44
22.30
19.85
16.86
13.38
9.73
6.35
3.56
1.35
-0.64
-2.96
-6.00
-9.92
-14.49
-19.25
-23.78
-27.77
-31.22
-34.32
-37.37
-40.66
-44.52
-49.20
-54.80
-61.10
-67.43
-72.59
-75.16
-73.87
-68.07
-58.09
-45.14
-30.97
-17.36
-5.50
4.08
11.50
17.19
21.56
24.85
27.11
28.33
28.64
28.39
28.05
28.08
28.72
29.93
31.45
33.04
34.50
35.84
37.16
38.53
39.82
40.77
41.11
40.70
39.59
37.95
35.99
33.69
30.99
27.80
24.15
20.25
16.40
12.82
9.59
6.64
3.68
0.52
-2.99
-6.89
-11.09
-15.41
-19.64
-23.64
-27.46
-31.34
-35.67
-40.88
-47.20
-54.49
-62.18
-69.21
-74.27
-76.04
-73.52
-66.34
-54.97
-40.62
-24.98
-9.76
3.76
14.90
23.60
30.15
34.94
38.24
40.27
41.22
41.31
40.88
40.24
39.64
39.20
38.94
38.91
39.16
39.78
40.84
42.29
43.90
45.36
46.35
46.58
45.99
44.67
42.83
40.78
38.76
36.86
35.00
32.97
30.50
27.47
23.87
19.90
15.87
12.05
8.62
5.55
2.62
-0.51
-4.13
-8.46
-13.42
-18.70
-23.85
-28.40
-32.07
-34.99
-37.75
-41.38
-47.01
-55.23
-65.73
-77.02
-86.85
-92.93
-93.69
-88.73
-78.91
-65.76
-50.95
-35.89
-21.50
-8.44
2.77
11.77
18.46
23.13
26.40
28.93
31.17
33.26
35.06
36.32
36.91
36.92
36.62
36.39
36.48
37.06
38.21
39.87
41.95
44.20
46.26
47.71
48.21
47.62
46.09
43.97
41.61
39.28
37.03
34.73
32.24
29.54
26.68
23.77
20.79
17.66
14.28
10.61
6.85
3.31
0.22
-2.39
-4.80
-7.50
-10.91
-15.17
-20.13
-25.34
-30.34
-34.80
-38.65
-42.00
-45.18
-48.62
-52.81
-58.19
-64.87
-72.50
-80.16
-86.37
-89.58
-88.50
-82.55
-72.05
-58.10
-42.40
-26.73
-12.61
-1.00
7.85
14.21
18.65
21.77
23.98
25.48
26.39
26.89
27.19
27.53
28.09
28.81
29.66
30.54
31.46
32.54
33.88
35.54
37.50
39.60
41.45
42.47
42.05
39.85
36.09
31.63
27.60
24.94
23.92
23.92
23.91
22.97
20.75
17.63
14.28
11.33
8.95
6.88
4.70
2.15
-0.85
-4.20
-7.76
-11.48
-15.28
-19.14
-22.98
-26.73
-30.36
-34.00
-37.94
-42.51
-47.99
-54.25
-60.76
-66.48
-70.08
-70.40
-66.71
-59.04
-48.09
-35.07
-21.31
-8.04
3.79
13.58
21.01
26.10
29.13
30.56
30.98
30.92
30.73
30.62
30.65
30.77
30.94
31.11
31.38
31.78
32.47
33.50
34.91
36.57
38.33
39.86
40.64
40.05
37.56
33.08
27.25
21.28
16.55
13.84
13.01
13.06
12.70
11.08
8.20
4.72
1.40
-1.52
-4.37
-7.81
-12.22
-17.32
-22.37
-26.51
-29.42
-31.45
-33.35
-36.10
-40.32
-46.11
-53.03
-60.17
-66.33
-70.26
-70.91
-67.60
-60.36
-49.89
-37.42
-24.50
-12.50
-2.31
5.73
11.85
16.51
20.13
22.94
24.99
26.27
26.90
27.19
27.49
28.05
28.87
29.70
30.27
30.45
30.42
30.57
31.23
32.49
34.08
35.45
36.09
35.70
34.27
32.06
29.44
26.69
24.00
21.36
18.71
15.95
13.05
10.03
6.99
3.99
1.12
-1.61
-4.31
-7.08
-10.04
-13.28
-16.77
-20.38
-23.98
-27.49
-30.86
-34.25
-37.88
-42.05
-46.98
-52.69
-58.93
-65.05
-70.08
-72.88
-72.52
-68.46
-60.76
-50.21
-37.90
-25.15
-13.12
-2.59
6.06
12.81
17.71
20.69
21.71
20.92
18.87
16.59
15.24
15.60
17.78
21.10
24.47
27.02
28.48
29.22
29.92
31.11
32.82
34.68
36.09
36.62
36.17
34.88
32.96
30.65
28.17
25.61
23.09
20.70
18.47
16.37
14.22
11.87
9.19
6.25
3.22
0.38
-2.13
-4.32
-6.43
-8.81
-11.63
-14.92
-18.41
-21.79
-24.86
-27.64
-30.32
-33.27
-36.72
-40.77
-45.36
-50.29
-55.33
-60.12
-64.08
-66.39
-66.21
-62.84
-56.04
-46.39
-34.89
-22.91
-11.66
-1.84
6.38
13.14
18.49
22.15
23.58
22.56
19.51
15.67
12.75
12.02
13.83
17.39
21.31
24.41
26.30
27.36
28.43
30.02
32.02
33.87
34.85
34.65
33.48
31.86
30.31
29.09
28.21
27.29
26.03
24.11
21.42
18.11
14.49
10.96
7.92
5.53
3.68
2.05
0.17
-2.32
-5.57
-9.40
-13.46
-17.35
-20.85
-24.02
-27.14
-30.61
-34.75
-39.75
-45.48
-51.52
-57.13
-61.36
-63.23
-61.97
-57.30
-49.46
-39.31
-27.96
-16.63
-6.31
2.41
9.34
14.62
18.54
21.43
23.55
25.11
26.17
26.83
27.15
27.31
27.52
28.08
29.14
30.75
32.72
34.70
36.26
37.15
37.29
36.88
36.17
35.33
34.32
32.96
31.06
28.59
25.69
22.62
19.65
16.90
14.34
11.92
9.53
7.05
4.38
1.39
-1.92
-5.55
-9.26
-12.81
-16.02
-18.79
-21.17
-23.35
-25.76
-29.04
-34.02
-41.22
-50.45
-60.56
-69.59
-75.41
-76.49
-72.50
-64.28
-53.42
-41.52
-29.72
-18.65
-8.62
0.12
7.27
12.64
16.31
18.64
20.16
21.36
22.47
23.64
24.75
25.67
26.36
26.76
26.94
27.04
27.19
27.50
28.05
28.81
29.66
30.44
30.96
31.05
30.61
29.65
28.36
26.98
25.70
24.57
23.42
21.95
19.89
17.23
14.16
11.10
8.35
6.06
4.08
2.12
-0.10
-2.72
-5.77
-9.11
-12.70
-16.46
-20.31
-24.15
-27.80
-31.13
-34.14
-37.25
-41.26
-47.04
-55.02
-64.57
-73.96
-80.81
-82.99
-79.45
-70.69
-58.40
-44.70
-31.35
-19.33
-8.91
-0.06
7.22
12.77
16.48
18.52
19.36
19.69
20.11
20.88
22.01
23.17
23.99
24.30
24.18
23.98
24.12
24.85
26.19
27.91
29.62
30.97
31.69
31.66
30.91
29.54
27.75
25.73
23.70
21.72
19.76
17.75
15.61
13.40
11.24
9.19
7.25
5.30
3.14
0.67
-2.10
-5.00
-7.81
-10.44
-12.95
-15.54
-18.50
-22.07
-26.43
-31.77
-38.18
-45.53
-53.34
-60.58
-65.84
-67.67
-65.08
-57.98
-47.27
-34.57
-21.68
-10.07
-0.51
6.89
12.46
16.67
19.92
22.44
24.36
25.74
26.72
27.45
28.02
28.48
28.81
28.95
28.99
29.10
29.50
30.33
31.50
32.63
33.28
33.14
32.12
30.60
29.00
27.65
26.63
25.67
24.35
22.20
18.78
13.90
7.79
1.08
-5.26
-10.30
-13.59
-15.31
-16.23
-17.32
-19.21
-21.91
-25.03
-28.04
-30.83
-33.86
-37.87
-43.45
-50.59
-58.47
-65.75
-70.92
-72.72
-70.45
-64.19
-54.67
-43.09
-30.80
-19.04
-8.69
-0.22
6.34
11.22
14.85
17.67
20.00
22.01
23.72
25.07
26.05
26.78
27.48
28.33
29.37
30.49
31.51
32.29
32.94
33.65
34.61
35.82
37.03
37.78
37.68
36.59
34.63
32.16
29.53
26.91
24.31
21.60
18.70
15.66
12.65
9.82
7.13
4.18
0.42
-4.54
-10.59
-17.08
-22.98
-27.44
-30.18
-31.64
-32.80
-34.57
-37.55
-41.86
-47.27
-53.52
-60.33
-67.20
-73.26
-77.18
-77.56
-73.50
-65.04
-53.25
-39.78
-26.41
-14.37
-4.29
3.82
10.26
15.26
19.02
21.73
23.60
24.90
25.97
27.00
27.99
28.81
29.31
29.50
29.59
29.90
30.71
32.08
33.81
35.55
36.89
37.63
37.71
37.25
36.41
35.31
34.02
32.62
31.21
29.87
28.58
27.13
25.18
22.49
18.97
14.87
10.60
6.56
2.96
-0.32
-3.56
-7.05
-10.88
-14.94
-18.98
-22.76
-26.15
-29.22
-32.21
-35.50
-39.51
-44.55
-50.74
-57.71
-64.61
-70.23
-73.24
-72.56
-67.74
-59.12
-47.70
-34.84
-21.87
-9.78
0.82
9.69
16.78
22.08
25.60
27.44
27.95
27.62
27.10
26.94
27.46
28.67
30.43
32.49
34.55
36.28
37.30
37.36
36.53
35.20
34.01
33.55
33.97
34.94
35.78
35.83
34.80
32.85
30.35
27.62
24.70
21.45
17.75
13.73
9.71
6.05
2.91
0.10
-2.69
-5.89
-9.71
-14.05
-18.62
-23.07
-27.12
-30.75
-34.18
-37.81
-42.19
-47.71
-54.52
-62.22
-69.84
-75.83
-78.53
-76.62
-69.65
-58.31
-44.22
-29.36
-15.50
-3.73
5.75
13.22
19.27
24.35
28.69
32.30
35.13
37.17
38.50
39.30
39.78
40.12
40.47
40.90
41.50
42.30
43.36
44.65
45.98
46.95
47.10
46.09
43.93
41.02
37.99
35.42
33.58
32.29
31.14
29.60
27.34
24.31
20.71
16.78
12.84
9.12
5.78
2.96
0.58
-1.59
-3.95
-6.97
-10.89
-15.73
-21.12
-26.54
-31.49
-35.70
-39.23
-42.50
-46.15
-50.79
-56.83
-64.24
-72.35
-79.94
-85.38
-87.06
-83.87
-75.63
-63.12
-47.95
-32.01
-16.97
-3.98
6.51
14.63
20.75
25.33
28.76
31.30
33.19
34.69
36.03
37.45
39.02
40.63
42.07
43.08
43.49
43.37
42.93
42.47
42.22
42.20
42.24
42.06
41.41
40.23
38.66
36.87
35.08
33.35
31.57
29.60
27.36
24.90
22.41
20.10
18.01
16.03
13.85
11.18
7.97
4.37
0.73
-2.59
-5.46
-7.96
-10.47
-13.37
-16.92
-21.12
-25.73
-30.39
-34.75
-38.72
-42.33
-45.91
-49.93
-54.86
-60.98
-68.18
-75.90
-83.13
-88.60
-90.91
-88.97
-82.17
-70.71
-55.73
-39.00
-22.56
-8.18
3.17
11.41
17.15
21.23
24.30
26.67
28.36
29.37
29.83
30.04
30.37
30.99
31.91
33.08
34.34
35.67
37.00
38.26
39.26
39.82
39.76
39.06
37.85
36.35
34.80
33.30
31.85
30.31
28.51
26.37
23.92
21.28
18.60
16.00
13.57
11.32
9.26
7.43
5.80
4.34
2.99
1.69
0.41
-0.90
-2.30
-3.98
-6.11
-8.87
-12.34
-16.36
-20.68
-24.99
-29.03
-32.73
-36.21
-39.81
-44.00
-49.31
-55.96
-63.68
-71.48
-77.81
-80.95
-79.57
-73.19
-62.42
-48.59
-33.40
-18.41
-4.74
6.98
16.43
23.55
28.45
31.37
32.75
33.05
32.71
32.07
31.39
30.84
30.58
30.69
31.16
31.90
32.73
33.52
34.25
35.03
35.97
37.06
38.10
38.71
38.52
37.32
35.18
32.49
29.70
27.21
25.15
23.38
21.58
19.43
16.76
13.64
10.32
7.18
4.50
2.32
0.47
-1.42
-3.75
-6.80
-10.61
-15.02
-19.71
-24.36
-28.79
-32.97
-37.10
-41.49
-46.48
-52.38
-59.25
-66.73
-74.00
-79.73
-82.45
-80.93
-74.63
-63.90
-49.95
-34.43
-19.02
-5.02
6.82
16.24
23.29
28.22
31.36
33.12
33.92
34.17
34.15
34.04
33.93
33.85
33.91
34.21
34.84
35.81
36.98
38.24
39.48
40.67
41.76
42.63
43.03
42.72
41.57
39.59
36.96
33.93
30.67
27.33
23.96
20.56
17.14
13.69
10.22
6.79
3.47
0.30
-2.74
-5.81
-9.22
-13.26
-18.04
-23.34
-28.66
-33.46
-37.42
-40.68
-43.78
-47.41
-52.22
-58.46
-65.85
-73.55
-80.26
-84.48
-84.85
-80.60
-71.67
-58.94
-43.91
-28.35
-13.93
-1.76
7.68
14.51
19.24
22.47
24.69
26.22
27.22
27.75
27.95
28.05
28.25
28.77
29.66
30.86
32.24
33.73
35.25
36.77
38.21
39.40
40.07
39.98
38.99
37.14
34.61
31.67
28.58
25.47
22.38
19.23
15.88
12.24
8.29
4.12
-0.05
-3.97
-7.39
-10.22
-12.58
-14.77
-17.23
-20.32
-24.27
-29.02
-34.26
-39.51
-44.28
-48.30
-51.67
-54.80
-58.41
-63.11
-69.13
-76.05
-82.68
-87.37
-88.48
-84.96
-76.72
-64.64
-50.23
-35.17
-20.89
-8.31
2.03
9.98
15.63
19.23
21.27
22.31
22.88
23.35
23.86
24.37
24.87
25.39
26.04
26.98
28.36
30.22
32.49
34.97
37.35
39.29
40.51
40.83
40.28
39.02
37.28
35.25
32.97
30.41
27.45
24.07
20.33
16.42
12.55
8.94
5.67
2.70
-0.14
-3.10
-6.42
-10.16
-14.24
-18.49
-22.68
-26.65
-30.38
-34.02
-37.89
-42.37
-47.76
-54.16
-61.14
-67.72
-72.51
-74.06
-71.33
-64.08
-52.99
-39.46
-25.18
-11.65
0.11
9.65
17.01
22.44
26.28
28.82
30.32
31.02
31.18
31.00
30.66
30.39
30.37
30.78
31.75
33.23
35.10
37.12
39.00
40.55
41.66
42.21
42.17
41.38
39.79
37.38
34.26
30.63
26.66
22.47
18.11
13.64
9.15
4.77
0.61
-3.39
-7.35
-11.42
-15.68
-20.01
-24.14
-27.79
-30.85
-33.48
-36.13
-39.38
-43.82
-49.76
-57.01
-64.83
-71.99
-76.95
-78.38
-75.42
-67.96
-56.82
-43.24
-28.78
-14.81
-2.29
8.26
16.75
23.36
28.38
32.13
34.90
36.86
38.13
38.83
39.11
39.19
39.29
39.57
40.03
40.56
40.95
41.11
41.08
41.02
41.08
41.32
41.53
41.40
40.59
38.92
36.49
33.62
30.69
28.01
25.65
23.46
21.17
18.50
15.28
11.56
7.51
3.46
-0.29
-3.51
-6.19
-8.55
-10.99
-13.88
-17.39
-21.49
-25.83
-30.03
-33.84
-37.24
-40.55
-44.25
-48.88
-54.84
-62.18
-70.40
-78.45
-84.84
-87.92
-86.45
-79.98
-69.05
-55.06
-39.86
-25.18
-12.28
-1.73
6.43
12.54
17.05
20.35
22.80
24.68
26.21
27.56
28.84
30.12
31.38
32.59
33.68
34.67
35.58
36.45
37.37
38.34
39.33
40.22
40.93
41.28
41.15
40.40
38.99
36.98
34.59
32.07
29.69
27.59
25.64
23.60
21.18
18.20
14.75
11.06
7.46
4.20
1.35
-1.16
-3.44
-5.59
-7.70
-9.84
-12.20
-14.97
-18.30
-22.19
-26.41
-30.66
-34.66
-38.37
-42.02
-46.09
-51.09
-57.26
-64.34
-71.36
-76.88
-79.30
-77.38
-70.76
-60.09
-46.80
-32.66
-19.25
-7.58
1.95
9.40
15.09
19.33
22.43
24.65
26.27
27.55
28.72
29.94
31.33
32.89
34.51
36.06
37.39
38.47
39.45
40.56
41.94
43.56
45.12
46.21
46.49
45.82
44.31
42.24
39.92
37.53
35.14
32.67
30.03
27.15
24.04
20.80
17.63
14.70
12.15
9.95
7.96
5.96
3.70
1.03
-2.14
-5.84
-10.03
-14.57
-19.26
-23.80
-28.01
-31.97
-36.07
-40.90
-46.97
-54.32
-62.30
-69.67
-74.78
-76.24
-73.27
-65.94
-55.21
-42.50
-29.33
-16.91
-5.98
3.14
10.42
15.98
20.03
22.82
24.71
26.18
27.58
29.14
30.81
32.35
33.51
34.22
34.63
35.06
35.81
37.01
38.56
40.21
41.61
42.60
43.13
43.29
43.14
42.60
41.43
39.39
36.40
32.69
28.82
25.37
22.75
20.97
19.65
18.25
16.41
14.08
11.49
9.02
6.84
4.84
2.69
0.02
-3.31
-7.25
-11.54
-15.90
-20.12
-24.12
-27.91
-31.62
-35.41
-39.48
-44.10
-49.49
-55.77
-62.74
-69.76
-75.72
-79.23
-79.04
-74.43
-65.54
-53.41
-39.64
-25.98
-13.79
-3.78
4.00
9.97
14.57
18.19
21.01
23.08
24.43
25.22
25.65
25.99
26.43
27.05
27.86
28.78
29.75
30.72
31.70
32.69
33.71
34.69
35.49
35.93
35.81
35.04
33.66
31.85
29.89
27.98
26.21
24.54
22.86
21.08
19.18
17.20
15.13
12.93
10.51
7.79
4.74
1.50
-1.72
-4.65
-7.17
-9.34
-11.40
-13.76
-16.74
-20.45
-24.73
-29.19
-33.32
-36.85
-39.79
-42.47
-45.52
-49.49
-54.68
-60.95
-67.52
-73.23
-76.73
-76.92
-73.31
-66.13
-56.20
-44.64
-32.55
-20.78
-10.00
-0.64
6.99
12.77
16.83
19.54
21.38
22.75
23.85
24.67
25.22
25.60
26.01
26.69
27.73
29.01
30.33
31.56
32.64
33.64
34.57
35.34
35.72
35.48
34.55
33.06
31.27
29.48
27.85
26.32
24.72
22.84
20.49
17.71
14.69
11.62
8.78
6.31
4.19
2.37
0.68
-1.04
-2.91
-5.04
-7.47
-10.18
-13.14
-16.29
-19.57
-22.98
-26.54
-30.31
-34.49
-39.23
-44.63
-50.65
-56.79
-62.15
-65.59
-66.12
-63.30
-57.43
-49.33
-40.00
-30.19
-20.29
-10.55
-1.34
6.81
13.34
18.00
21.04
23.09
24.83
26.63
28.35
29.61
30.11
29.91
29.43
29.27
29.80
31.03
32.77
34.56
36.04
36.97
37.22
36.80
35.79
34.29
32.52
30.67
28.90
27.24
25.52
23.50
20.98
17.87
14.29
10.55
6.98
3.83
1.19
-1.12
-3.44
-6.11
-9.30
-12.98
-16.89
-20.71
-24.22
-27.45
-30.62
-34.11
-38.24
-43.20
-48.92
-55.04
-60.82
-65.18
-66.95
-65.16
-59.45
-50.25
-38.78
-26.56
-15.09
-5.35
2.35
8.13
12.44
15.67
18.12
19.93
21.21
22.04
22.55
22.89
23.20
23.59
24.08
24.66
25.28
25.92
26.61
27.44
28.42
29.45
30.32
30.76
30.59
29.78
28.46
26.80
24.99
23.15
21.32
19.61
18.05
16.64
15.24
13.67
11.73
9.26
6.19
2.65
-1.18
-4.97
-8.39
-11.25
-13.55
-15.50
-17.55
-20.07
-23.15
-26.60
-29.94
-32.76
-35.01
-37.04
-39.50
-43.10
-48.20
-54.65
-61.72
-68.18
-72.60
-73.62
-70.45
-63.09
-52.44
-40.01
-27.50
-16.26
-7.01
0.19
5.76
10.27
14.04
17.17
19.57
21.09
21.81
21.99
22.02
22.26
22.84
23.60
24.32
24.75
24.87
24.93
25.24
26.05
27.40
29.04
30.60
31.73
32.13
31.66
30.35
28.37
25.96
23.45
21.10
19.08
17.44
16.12
14.98
13.68
11.71
8.58
4.10
-1.37
-6.82
-11.07
-13.33
-13.60
-12.79
-12.15
-12.66
-14.65
-17.69
-21.06
-24.29
-27.44
-30.94
-35.31
-40.72
-46.87
-53.06
-58.34
-61.72
-62.29
-59.53
-53.35
-44.25
-33.22
-21.56
-10.45
-0.78
7.05
13.02
17.36
20.31
22.06
22.83
22.82
22.41
22.01
21.92
22.31
23.05
23.89
24.61
25.18
25.75
26.60
27.87
29.47
31.12
32.36
32.83
32.45
31.34
29.88
28.42
27.14
26.00
24.73
22.98
20.55
17.43
13.87
10.33
7.22
4.73
2.75
0.92
-1.25
-4.05
-7.56
-11.51
-15.50
-19.15
-22.34
-25.17
-27.97
-31.06
-34.73
-39.15
-44.35
-50.16
-56.14
-61.48
-65.06
-65.76
-62.75
-55.91
-45.93
-34.16
-22.19
-11.38
-2.58
4.04
8.74
12.15
14.75
16.94
18.90
20.60
22.05
23.36
24.63
25.85
26.74
26.85
25.91
24.10
22.17
21.18
21.92
24.46
28.06
31.47
33.54
33.79
32.42
30.13
27.64
25.39
23.45
21.64
19.75
17.61
15.17
12.41
9.40
6.36
3.46
0.83
-1.49
-3.71
-6.06
-8.75
-11.86
-15.27
-18.81
-22.30
-25.63
-28.83
-31.98
-35.27
-38.91
-43.09
-47.94
-53.36
-59.02
-64.13
-67.69
-68.61
-66.10
-59.97
-50.68
-39.26
-27.05
-15.35
-5.11
3.12
9.21
13.34
15.84
17.24
17.95
18.38
18.81
19.35
20.08
21.12
22.51
24.11
25.45
25.82
24.76
22.46
19.85
18.32
18.94
21.83
26.03
29.97
32.30
32.54
31.15
29.05
26.93
24.87
22.45
19.25
15.30
11.10
7.39
4.56
2.49
0.70
-1.61
-4.88
-9.07
-13.72
-18.16
-21.86
-24.72
-27.09
-29.60
-32.97
-37.55
-43.23
-49.36
-54.85
-58.49
-59.21
-56.37
-49.91
-40.46
-29.10
-17.17
-5.93
3.70
11.31
16.92
20.88
23.62
25.47
26.65
27.23
27.33
27.16
26.93
26.85
26.99
27.32
27.75
28.26
28.88
29.66
30.61
31.62
32.50
33.01
32.94
32.25
30.96
29.24
27.26
25.18
23.07
20.94
18.73
16.34
13.77
10.99
8.04
4.89
1.44
-2.36
-6.45
-10.67
-14.75
-18.43
-21.73
-24.84
-28.18
-32.20
-37.20
-43.22
-49.96
-56.77
-62.56
-66.21
-66.51
-62.76
-54.99
-43.97
-31.06
-17.88
-5.97
3.44
9.66
12.72
13.33
12.73
12.27
12.90
14.86
17.66
20.44
22.53
23.68
24.13
24.34
24.61
24.99
25.42
25.82
26.31
27.04
27.99
28.91
29.42
29.23
28.17
26.45
24.36
22.26
20.32
18.50
16.66
14.58
12.11
9.24
6.12
2.92
-0.22
-3.28
-6.34
-9.53
-12.91
-16.42
-19.90
-23.18
-26.14
-28.81
-31.34
-33.98
-37.01
-40.67
-45.07
-50.17
-55.64
-60.82
-64.75
-66.42
-64.99
-60.03
-51.87
-41.27
-29.42
-17.57
-6.62
2.87
10.73
16.94
21.27
23.50
23.54
21.85
19.45
17.74
17.81
20.04
23.84
28.02
31.49
33.72
34.92
35.74
36.70
37.87
38.86
39.18
38.57
37.25
35.68
34.28
33.18
32.26
31.06
29.21
26.54
23.17
19.44
15.72
12.34
9.41
6.90
4.60
2.24
-0.46
-3.70
-7.52
-11.73
-15.99
-19.97
-23.50
-26.73
-30.13
-34.33
-39.74
-46.29
-53.24
-59.33
-63.08
-63.32
-59.53
-52.07
-41.92
-30.42
-18.82
-8.06
1.32
9.12
15.37
20.15
23.63
26.05
27.65
28.70
29.43
29.92
30.26
30.49
30.72
31.13
31.92
33.22
34.97
36.97
38.91
40.49
41.51
41.90
41.74
41.13
40.14
38.87
37.35
35.61
33.63
31.31
28.59
25.39
21.78
17.91
14.03
10.29
6.72
3.19
-0.50
-4.33
-8.29
-12.15
-15.75
-19.09
-22.35
-25.76
-29.64
-34.33
-40.31
-47.94
-57.20
-67.26
-76.49
-82.70
-83.94
-79.33
-69.40
-55.90
-41.11
-26.99
-14.68
-4.58
3.46
9.68
14.26
17.37
19.31
20.48
21.30
22.06
22.81
23.63
24.40
25.08
25.70
26.27
26.81
27.35
27.94
28.67
29.67
30.91
32.23
33.29
33.63
32.91
31.09
28.51
25.79
23.55
22.10
21.29
20.63
19.49
17.47
14.61
11.27
8.00
5.24
3.09
1.40
-0.22
-2.19
-4.80
-8.24
-12.45
-17.26
-22.34
-27.33
-31.93
-35.95
-39.33
-42.25
-45.28
-49.27
-55.06
-62.95
-72.16
-80.75
-86.16
-86.15
-79.85
-68.15
-53.28
-37.90
-24.03
-12.51
-3.24
4.35
10.63
15.63
19.28
21.64
23.11
24.19
25.31
26.47
27.55
28.27
28.57
28.65
28.83
29.44
30.62
32.33
34.37
36.49
38.41
39.82
40.49
40.19
38.92
36.88
34.39
31.84
29.44
27.16
24.81
22.19
19.17
15.86
12.50
9.27
6.28
3.43
0.49
-2.67
-6.02
-9.36
-12.34
-14.81
-16.93
-19.16
-22.18
-26.50
-32.37
-39.57
-47.48
-55.12
-61.35
-65.05
-65.30
-61.68
-54.38
-44.21
-32.45
-20.43
-9.32
0.19
7.84
13.75
18.22
21.68
24.52
27.04
29.40
31.55
33.34
34.63
35.37
35.71
35.95
36.38
37.24
38.60
40.29
42.02
43.44
44.18
44.00
42.91
41.04
38.75
36.37
34.09
32.03
30.10
28.16
25.91
22.92
18.78
13.42
7.23
1.10
-3.90
-7.09
-8.51
-8.95
-9.59
-11.33
-14.35
-18.21
-22.16
-25.73
-29.00
-32.51
-36.99
-42.90
-50.17
-58.21
-65.97
-72.16
-75.47
-74.97
-70.25
-61.66
-50.21
-37.34
-24.55
-13.03
-3.41
4.19
10.04
14.59
18.24
21.23
23.74
25.85
27.64
29.23
30.60
31.70
32.42
32.75
32.83
32.96
33.50
34.65
36.34
38.26
40.02
41.29
41.98
42.20
42.07
41.62
40.76
39.30
37.16
34.48
31.48
28.52
25.82
23.42
21.10
18.43
15.04
10.77
5.88
0.95
-3.36
-6.64
-9.01
-10.95
-13.08
-15.82
-19.13
-22.72
-26.15
-29.28
-32.29
-35.57
-39.46
-44.15
-49.59
-55.66
-62.20
-68.91
-75.12
-79.84
-81.78
-79.80
-73.35
-62.79
-49.39
-34.90
-21.05
-9.10
0.40
7.59
12.86
16.65
19.24
20.73
21.21
20.91
20.21
19.58
19.36
19.65
20.35
21.17
21.96
22.68
23.50
24.69
26.40
28.61
31.02
33.24
34.84
35.58
35.44
34.49
32.96
31.06
28.89
26.56
24.11
21.54
18.89
16.15
13.28
10.26
7.10
3.95
1.08
-1.30
-3.13
-4.61
-6.15
-8.17
-10.84
-14.06
-17.45
-20.59
-23.30
-25.69
-28.07
-30.85
-34.33
-38.66
-43.86
-49.74
-55.80
-61.19
-64.75
-65.33
-62.22
-55.42
-45.79
-34.64
-23.38
-12.97
-3.88
3.90
10.49
16.02
20.45
23.60
25.28
25.40
24.21
22.27
20.43
19.49
19.87
21.49
23.74
25.89
27.47
28.48
29.33
30.43
31.83
33.17
33.84
33.42
31.92
29.73
27.38
25.19
23.11
20.93
18.34
15.27
11.88
8.48
5.32
2.48
-0.14
-2.75
-5.50
-8.48
-11.69
-15.07
-18.57
-22.14
-25.70
-29.17
-32.54
-35.95
-39.71
-44.20
-49.53
-55.41
-60.93
-64.73
-65.44
-62.15
-54.73
-43.99
-31.37
-18.48
-6.69
3.19
10.91
16.63
20.69
23.46
25.24
26.25
26.68
26.70
26.51
26.23
25.89
25.44
24.86
24.24
23.83
23.90
24.69
26.19
28.11
29.99
31.41
32.18
32.28
31.91
31.25
30.36
29.16
27.51
25.33
22.63
19.53
16.22
12.88
9.71
6.77
4.06
1.44
-1.31
-4.49
-8.24
-12.51
-17.02
-21.32
-24.98
-27.86
-30.15
-32.38
-35.22
-39.19
-44.54
-50.99
-57.81
-63.94
-68.09
-69.14
-66.35
-59.61
-49.48
-37.16
-24.05
-11.51
-0.58
8.19
14.76
19.44
22.79
25.42
27.67
29.69
31.37
32.44
32.80
32.54
31.91
31.28
30.87
30.72
30.78
30.94
31.22
31.71
32.43
33.26
33.93
34.10
33.57
32.34
30.61
28.68
26.84
25.17
23.61
21.96
20.04
17.70
14.95
11.87
8.70
5.68
3.02
0.87
-0.84
-2.33
-3.98
-6.13
-9.04
-12.69
-16.86
-21.11
-25.04
-28.48
-31.50
-34.42
-37.73
-41.89
-47.29
-54.06
-61.82
-69.67
-76.14
-79.50
-78.39
-72.26
-61.76
-48.49
-34.46
-21.44
-10.49
-1.87
4.74
9.77
13.66
16.69
19.05
20.89
22.41
23.74
24.97
26.20
27.42
28.61
29.67
30.44
30.85
30.90
30.72
30.53
30.48
30.58
30.72
30.59
29.97
28.74
26.98
24.91
22.84
21.00
19.45
18.14
16.86
15.43
13.76
11.94
10.07
8.34
6.83
5.49
4.24
2.96
1.63
0.19
-1.40
-3.25
-5.59
-8.60
-12.33
-16.62
-21.11
-25.36
-29.04
-32.14
-34.97
-38.10
-42.06
-47.13
-53.14
-59.42
-64.96
-68.69
-69.70
-67.47
-61.98
-53.66
-43.35
-31.99
-20.64
-10.19
-1.29
5.76
10.97
14.60
17.03
18.60
19.54
20.07
20.29
20.34
20.40
20.61
21.07
21.81
22.79
24.00
25.40
26.88
28.29
29.37
29.88
29.69
28.84
27.56
26.16
24.81
23.54
22.22
20.64
18.68
16.40
13.96
11.60
9.49
7.63
5.94
4.23
2.27
-0.03
-2.70
-5.67
-8.81
-12.05
-15.36
-18.71
-22.13
-25.73
-29.68
-34.24
-39.66
-45.92
-52.55
-58.57
-62.69
-63.69
-60.87
-54.33
-44.98
-34.17
-23.28
-13.38
-4.95
1.94
7.51
11.97
15.49
18.10
19.85
20.83
21.21
21.22
21.07
20.93
20.95
21.18
21.68
22.48
23.56
24.85
26.22
27.48
28.47
29.02
29.05
28.50
27.35
25.62
23.41
20.82
17.89
14.74
11.46
8.22
5.21
2.51
0.05
-2.42
-5.25
-8.70
-12.69
-16.90
-20.78
-23.92
-26.29
-28.27
-30.55
-33.85
-38.54
-44.45
-50.87
-56.62
-60.40
-61.01
-57.78
-50.74
-40.71
-29.03
-17.28
-6.75
1.86
8.44
13.30
16.89
19.56
21.49
22.77
23.58
24.13
24.65
25.24
25.87
26.32
26.47
26.42
26.44
26.86
27.95
29.61
31.52
33.24
34.38
34.75
34.47
33.69
32.62
31.28
29.63
27.61
25.26
22.62
19.80
16.87
13.79
10.46
6.82
2.81
-1.50
-5.92
-10.27
-14.29
-17.84
-20.91
-23.62
-26.25
-29.06
-32.25
-35.95
-40.32
-45.40
-51.25
-57.62
-63.78
-68.53
-70.37
-68.11
-61.39
-50.94
-38.35
-25.54
-14.01
-4.53
2.91
8.74
13.44
17.31
20.45
22.91
24.79
26.26
27.49
28.47
29.14
29.34
29.03
28.39
27.77
27.58
28.13
29.47
31.34
33.27
34.76
35.51
35.45
34.78
33.83
32.86
31.99
31.19
30.30
29.21
27.82
26.01
23.68
20.76
17.28
13.37
9.31
5.35
1.68
-1.64
-4.82
-8.09
-11.65
-15.56
-19.66
-23.69
-27.37
-30.59
-33.41
-36.11
-39.01
-42.53
-46.95
-52.40
-58.74
-65.46
-71.63
-76.06
-77.54
-75.24
-69.07
-59.61
-48.12
-36.00
-24.48
-14.35
-5.89
1.01
6.59
11.04
14.49
17.00
18.71
19.84
20.72
21.62
22.75
24.09
25.46
26.64
27.45
27.95
28.33
28.87
29.77
31.03
32.38
33.46
33.92
33.60
32.60
31.12
29.41
27.62
25.75
23.76
21.65
19.42
17.12
14.79
12.42
9.98
7.54
5.12
2.75
0.39
-2.12
-5.00
-8.36
-12.14
-16.04
-19.72
-22.94
-25.62
-28.02
-30.57
-33.83
-38.24
-43.92
-50.50
-57.09
-62.41
-65.10
-64.15
-59.22
-50.77
-39.87
-27.91
-16.19
-5.65
3.21
10.27
15.69
19.74
22.71
24.81
26.16
26.81
26.81
26.32
25.55
24.81
24.39
24.45
25.00
25.91
26.98
28.07
29.13
30.12
31.03
31.73
32.00
31.59
30.42
28.59
26.36
23.98
21.61
19.22
16.69
13.91
10.92
7.85
4.82
1.82
-1.29
-4.68
-8.35
-12.21
-16.01
-19.61
-23.06
-26.57
-30.51
-35.13
-40.53
-46.53
-52.75
-58.53
-63.03
-65.35
-64.73
-60.78
-53.63
-43.95
-32.76
-21.14
-10.05
-0.17
8.16
14.83
19.93
23.63
26.16
27.79
28.73
29.19
29.35
29.42
29.62
30.08
30.87
31.92
33.01
33.98
34.73
35.28
35.77
36.25
36.64
36.76
36.33
35.12
33.17
30.60
27.67
24.63
21.54
18.41
15.17
11.70
8.01
4.07
-0.08
-4.36
-8.66
-12.85
-16.84
-20.58
-24.14
-27.69
-31.57
-36.14
-41.68
-48.18
-55.17
-61.62
-66.15
-67.45
-64.65
-57.81
-47.79
-36.01
-24.01
-12.95
-3.39
4.58
11.19
16.71
21.23
24.78
27.37
29.09
30.19
30.95
31.62
32.35
33.11
33.83
34.51
35.15
35.87
36.79
37.85
38.97
39.92
40.44
40.40
39.76
38.58
36.96
35.03
32.81
30.34
27.58
24.53
21.23
17.83
14.49
11.36
8.46
5.60
2.60
-0.76
-4.53
-8.57
-12.71
-16.72
-20.51
-24.12
-27.69
-31.43
-35.71
-40.85
-46.98
-53.82
-60.43
-65.42
-67.26
-64.85
-58.06
-47.74
-35.48
-23.02
-11.70
-2.23
5.26
10.99
15.30
18.48
20.81
22.54
23.87
24.93
25.82
26.51
27.10
27.67
28.39
29.38
30.64
32.00
33.22
34.08
34.49
34.53
34.32
33.93
33.32
32.33
30.81
28.75
26.29
23.71
21.31
19.19
17.31
15.46
13.39
10.96
8.22
5.27
2.35
-0.34
-2.79
-5.04
-7.28
-9.77
-12.66
-16.00
-19.67
-23.48
-27.38
-31.43
-35.76
-40.48
-45.56
-50.80
-56.10
-61.32
-66.33
-70.78
-73.95
-74.78
-72.31
-65.99
-56.14
-43.92
-30.93
-18.69
-8.17
0.31
6.97
12.12
16.08
19.06
21.13
22.44
23.17
23.56
23.89
24.34
25.09
26.19
27.59
29.13
30.59
31.76
32.57
33.07
33.39
33.69
33.99
34.17
34.05
33.45
32.33
30.78
28.92
26.89
24.71
22.33
19.70
16.82
13.84
10.97
8.46
6.42
4.75
3.15
1.25
-1.26
-4.46
-8.16
-11.97
-15.58
-18.86
-21.94
-25.19
-29.09
-33.93
-39.76
-46.18
-52.35
-57.11
-59.32
-58.14
-53.36
-45.44
-35.38
-24.43
-13.67
-3.86
4.61
11.58
17.00
20.88
23.33
24.56
24.95
24.91
24.76
24.71
24.85
25.14
25.58
26.17
26.87
27.69
28.58
29.48
30.32
31.02
31.46
31.60
31.37
30.68
29.38
27.35
24.54
21.16
17.64
14.52
12.18
10.63
9.49
8.13
6.01
2.91
-0.97
-5.22
-9.36
-13.09
-16.34
-19.17
-21.74
-24.25
-26.96
-30.21
-34.31
-39.31
-44.92
-50.37
-54.59
-56.49
-55.33
-50.90
-43.63
-34.38
-24.22
-14.15
-4.97
2.84
9.00
13.56
16.75
19.00
20.77
22.37
23.88
25.18
26.06
26.41
26.32
26.08
26.00
26.32
27.07
28.18
29.53
30.98
32.38
33.53
34.12
33.97
32.97
31.31
29.37
27.56
26.08
24.92
23.81
22.25
19.74
15.97
10.98
5.32
-0.11
-4.39
-7.01
-8.17
-8.69
-9.56
-11.47
-14.39
-17.72
-20.76
-23.19
-25.36
-28.06
-32.04
-37.48
-43.89
-50.23
-55.34
-58.33
-58.56
-55.96
-50.74
-43.43
-34.75
-25.52
-16.49
-8.23
-1.09
4.82
9.45
12.86
15.15
16.48
17.15
17.58
18.12
18.94
20.00
21.02
21.71
21.94
21.76
21.50
21.47
21.83
22.50
23.21
23.59
23.44
22.78
21.83
20.87
20.06
19.36
18.57
17.46
15.89
13.93
11.73
9.46
7.30
5.25
3.27
1.21
-1.07
-3.66
-6.57
-9.70
-12.86
-15.89
-18.71
-21.32
-23.83
-26.41
-29.17
-32.30
-35.97
-40.26
-45.06
-49.85
-53.68
-55.44
-54.21
-49.67
-42.39
-33.50
-24.32
-15.87
-8.60
-2.50
2.60
6.81
10.16
12.52
14.02
14.90
15.49
16.05
16.74
17.55
18.32
18.79
18.70
18.02
16.94
15.97
15.71
16.51
18.26
20.37
22.06
22.78
22.44
21.38
20.09
18.92
17.82
16.56
14.89
12.69
10.12
7.43
4.77
2.22
-0.25
-2.77
-5.38
-8.07
-10.75
-13.31
-15.70
-17.99
-20.36
-23.03
-26.24
-30.05
-34.34
-38.73
-42.62
-45.27
-45.97
-44.24
-39.99
-33.55
-25.72
-17.47
-9.73
-3.16
1.99
5.82
8.61
10.69
12.30
13.54
14.44
15.00
15.25
15.24
15.16
15.05
15.09
15.41
16.04
17.09
18.55
20.24
21.72
22.27
21.17
18.11
13.48
8.40
4.27
2.08
1.98
3.19
4.44
4.64
3.46
1.22
-1.37
-3.77
-5.88
-7.96
-10.31
-13.05
-16.04
-19.09
-22.22
-25.60
-29.36
-33.58
-37.90
-41.63
-43.93
-44.03
-41.57
-36.68
-29.92
-22.18
-14.34
-7.10
-0.90
4.16
8.18
11.31
13.78
15.75
17.26
18.38
19.13
19.57
19.81
20.02
20.34
20.88
21.66
22.62
23.64
24.60
25.36
25.88
26.12
26.08
25.76
25.10
24.02
22.44
20.36
17.90
15.34
12.88
10.63
8.51
6.18
3.33
-0.21
-4.35
-8.64
-12.56
-15.72
-18.08
-20.07
-22.34
-25.48
-29.71
-34.70
-39.58
-43.25
-44.72
-43.36
-39.17
-32.68
-24.80
-16.48
-8.53
-1.32
4.99
10.54
15.46
19.75
23.25
25.79
27.36
28.13
28.61
29.35
30.77
33.05
36.05
39.31
42.09
43.60
43.17
40.63
36.46
31.70
27.47
24.55
23.00
22.17
21.19
19.43
16.86
13.92
11.20
8.99
7.11
5.16
2.73
-0.28
-3.69
-7.24
-10.77
-14.32
-17.85
-21.47
-25.18
-28.97
-32.89
-37.06
-41.53
-46.25
-50.96
-55.21
-58.38
-59.90
-59.31
-56.42
-51.37
-44.61
-36.74
-28.52
-20.52
-13.22
-6.93
-1.78
2.19
5.00
6.87
8.05
8.93
9.88
11.08
12.54
14.08
15.41
16.34
16.81
17.03
17.14
17.46
18.04
18.89
19.91
20.97
21.91
22.35
21.63
19.05
14.33
7.99
1.44
-3.55
-5.70
-4.85
-2.22
0.32
1.12
-0.41
-3.78
-7.73
-11.22
-13.87
-15.96
-18.11
-20.70
-23.80
-27.25
-30.90
-34.72
-38.53
-42.01
-44.47
-45.09
-43.21
-38.64
-31.78
-23.51
-14.93
-6.98
-0.31
4.82
8.42
10.71
12.01
12.68
13.09
13.54
14.17
15.00
15.84
16.54
16.96
17.18
17.42
17.94
18.92
20.38
22.10
23.78
25.13
25.87
25.88
25.12
23.63
21.54
19.09
16.51
14.01
11.72
9.51
7.18
4.48
1.22
-2.58
-6.71
-10.82
-14.53
-17.62
-20.13
-22.41
-25.09
-28.85
-34.04
-40.52
-47.38
-53.27
-56.71
-56.65
-52.80
-45.72
-36.59
-26.74
-17.38
-9.18
-2.35
3.28
8.00
12.07
15.58
18.51
20.74
22.24
23.18
23.71
24.04
24.30
24.44
24.41
24.26
24.13
24.00
23.64
22.52
20.28
17.04
13.52
10.82
9.76
10.39
11.94
13.19
13.23
11.92
9.81
7.67
5.92
4.29
2.23
-0.75
-4.65
-8.95
-12.93
-16.14
-18.50
-20.26
-21.96
-24.06
-26.85
-30.49
-34.94
-39.86
-44.73
-48.74
-50.98
-50.73
-47.57
-41.63
-33.56
-24.29
-14.81
-5.89
2.00
8.68
14.13
18.46
21.75
24.18
25.93
27.17
28.06
28.73
29.25
29.67
30.07
30.50
31.00
31.53
32.03
32.49
32.84
33.08
33.16
33.02
32.59
31.88
30.91
29.52
27.43
24.22
19.72
14.31
8.86
4.51
2.03
1.40
1.81
2.10
1.32
-0.77
-3.80
-7.13
-10.27
-13.15
-15.99
-18.98
-22.19
-25.50
-28.88
-32.47
-36.61
-41.40
-46.81
-52.19
-56.52
-58.72
-57.83
-53.45
-45.86
-35.96
-25.00
-14.36
-5.03
2.47
8.11
12.22
15.24
17.43
18.98
19.91
20.30
20.32
20.24
20.34
20.84
21.85
23.31
25.19
27.39
29.77
32.18
34.39
36.13
37.21
37.45
36.76
35.20
32.88
30.01
26.84
23.58
20.39
17.34
14.45
11.79
9.37
7.24
5.38
3.62
1.77
-0.42
-3.10
-6.20
-9.53
-12.82
-15.76
-18.24
-20.31
-22.20
-24.27
-26.90
-30.37
-34.63
-39.36
-43.81
-47.03
-48.03
-46.08
-41.01
-33.26
-23.77
-13.78
-4.43
3.52
9.86
14.68
18.40
21.28
23.49
25.10
26.13
26.71
26.88
26.44
25.11
22.72
19.49
16.22
13.99
13.66
15.39
18.54
21.99
24.69
26.14
26.36
25.72
24.47
22.58
19.99
16.69
12.92
9.17
5.79
2.85
0.16
-2.52
-5.47
-8.74
-12.21
-15.76
-19.21
-22.50
-25.60
-28.55
-31.47
-34.59
-38.16
-42.36
-47.05
-51.74
-55.55
-57.37
-56.30
-51.87
-44.28
-34.43
-23.57
-12.97
-3.64
3.99
9.89
14.31
17.62
20.02
21.62
22.49
22.77
22.73
22.74
23.11
23.84
24.82
25.66
26.03
25.82
25.17
24.37
23.68
22.98
21.92
20.13
17.46
14.26
11.24
9.06
7.99
7.75
7.61
6.88
5.14
2.38
-1.04
-4.81
-8.71
-12.64
-16.49
-20.14
-23.40
-26.30
-29.12
-32.33
-36.35
-41.34
-46.94
-52.36
-56.49
-58.26
-56.96
-52.41
-45.01
-35.67
-25.51
-15.62
-6.83
0.47
6.19
10.50
13.69
16.00
17.64
18.76
19.50
19.97
20.28
20.52
20.81
21.26
21.97
23.00
24.29
25.63
26.78
27.53
27.78
27.54
26.84
25.63
23.84
21.47
18.59
15.47
12.34
9.31
6.22
2.75
-1.37
-6.16
-11.31
-16.31
-20.61
-23.99
-26.55
-28.76
-31.26
-34.58
-39.08
-44.73
-51.09
-57.35
-62.49
-65.50
-65.59
-62.45
-56.24
-47.67
-37.73
-27.47
-17.77
-9.21
-1.99
3.93
8.68
12.40
15.09
16.90
17.88
18.31
18.51
18.75
19.20
19.91
20.82
21.72
22.35
22.36
21.65
20.38
19.00
18.12
18.17
19.10
20.42
21.43
21.53
20.59
18.79
16.50
13.96
11.17
7.98
4.30
0.24
-3.98
-8.04
-11.80
-15.28
-18.53
-21.84
-25.49
-29.70
-34.54
-39.75
-44.67
-48.32
-49.64
-47.87
-42.87
-35.19
-25.90
-16.26
-7.31
0.41
6.78
12.02
16.39
20.02
22.89
24.93
26.18
26.85
27.29
27.79
28.54
29.48
30.41
31.12
31.53
31.76
32.02
32.44
32.97
33.34
33.15
32.13
30.23
27.63
24.73
21.89
19.25
16.69
13.84
10.39
6.24
1.66
-2.86
-6.81
-9.93
-12.36
-14.47
-16.84
-19.83
-23.61
-28.21
-33.53
-39.30
-45.03
-49.84
-52.58
-52.18
-48.13
-40.76
-31.21
-20.99
-11.54
-3.73
2.28
6.84
10.55
13.89
17.05
19.93
22.33
24.03
24.95
25.24
25.11
24.84
24.65
24.65
24.90
25.46
26.36
27.65
29.27
31.01
32.53
33.50
33.68
33.09
31.89
30.36
28.68
26.87
24.84
22.52
19.81
16.67
13.07
8.99
4.47
-0.34
-5.17
-9.68
-13.68
-17.32
-21.01
-25.33
-30.69
-37.04
-43.75
-49.78
-53.96
-55.35
-53.56
-48.71
-41.44
-32.59
-23.08
-13.70
-5.09
2.35
8.44
13.24
17.03
20.09
22.67
24.89
26.74
28.21
29.35
30.23
31.00
31.69
32.28
32.66
32.83
32.81
32.77
32.82
32.93
32.99
32.78
32.15
31.05
29.37
27.07
24.15
20.73
17.17
13.89
11.21
9.23
7.72
6.25
4.50
2.37
-0.06
-2.59
-5.16
-7.87
-10.87
-14.26
-17.93
-21.66
-25.29
-28.80
-32.40
-36.30
-40.72
-45.59
-50.53
-54.86
-57.73
-58.31
-56.01
-50.75
-42.99
-33.63
-23.77
-14.40
-6.16
0.66
6.16
10.59
14.21
17.14
19.40
20.97
21.91
22.44
22.86
23.50
24.53
25.90
27.42
28.80
29.89
30.68
31.32
32.02
32.85
33.71
34.29
34.30
33.48
31.83
29.49
26.75
23.80
20.72
17.45
13.87
9.99
5.99
2.17
-1.26
-4.25
-6.94
-9.56
-12.21
-14.83
-17.21
-19.21
-20.91
-22.74
-25.26
-28.95
-33.90
-39.62
-45.11
-49.18
-50.76
-49.24
-44.65
-37.62
-29.07
-20.03
-11.34
-3.57
3.03
8.42
12.69
16.00
18.51
20.31
21.51
22.20
22.52
22.65
22.79
23.06
23.50
23.97
24.33
24.46
24.40
24.30
24.37
24.74
25.33
25.96
26.31
26.07
25.11
23.44
21.24
18.83
16.43
14.14
11.93
9.53
6.70
3.28
-0.70
-4.95
-9.12
-12.89
-16.21
-19.23
-22.25
-25.55
-29.29
-33.50
-38.08
-42.81
-47.33
-50.97
-52.86
-52.22
-48.52
-41.97
-33.35
-23.89
-14.69
-6.50
0.49
6.41
11.41
15.56
18.69
20.72
21.73
21.99
21.91
21.83
21.93
22.26
22.79
23.50
24.42
25.49
26.63
27.69
28.52
28.98
28.96
28.34
27.03
25.17
22.99
20.85
19.08
17.75
16.62
15.26
13.29
10.65
7.54
4.32
1.21
-1.78
-4.78
-7.91
-11.12
-14.23
-17.05
-19.64
-22.27
-25.31
-29.14
-33.91
-39.43
-45.25
-50.58
-54.49
-56.02
-54.42
-49.45
-41.52
-31.65
-21.12
-11.22
-2.76
3.90
8.94
12.74
15.70
18.09
20.01
21.42
22.24
22.51
22.39
22.10
21.95
22.15
22.82
23.93
25.30
26.79
28.27
29.64
30.84
31.74
32.13
31.81
30.66
28.71
26.19
23.42
20.65
18.00
15.35
12.51
9.38
6.02
2.72
-0.19
-2.53
-4.39
-6.10
-8.07
-10.54
-13.57
-16.96
-20.43
-23.70
-26.64
-29.19
-31.41
-33.49
-35.69
-38.41
-41.83
-45.78
-49.63
-52.39
-52.91
-50.48
-44.93
-36.76
-26.91
-16.37
-5.93
3.92
12.92
20.86
27.55
32.85
36.77
39.47
41.28
42.44
43.03
42.93
41.91
39.89
37.13
34.14
31.50
29.67
28.74
28.46
28.45
28.36
28.06
27.66
27.25
26.85
26.34
25.48
24.06
22.00
19.34
16.25
12.88
9.34
5.67
1.86
-2.08
-6.06
-9.97
-13.76
-17.47
-21.37
-25.88
-31.39
-38.18
-46.16
-55.03
-64.35
-73.65
-82.49
-90.45
-97.06
-101.80
-104.25
-104.19
-101.64
-96.83
-90.05
-81.63
-71.97
-61.55
-51.03
-41.11
-32.29
-24.80
-18.49
-13.01
-8.04
-3.49
0.51
3.73
5.99
7.29
7.75
7.58
7.05
6.39
5.92
5.91
6.49
7.66
9.11
10.38
11.09
10.96
10.08
8.69
7.11
5.54
4.02
2.39
0.44
-1.94
-4.77
-7.96
-11.43
-15.07
-18.82
-22.67
-26.69
-30.97
-35.63
-40.70
-45.95
-50.90
-54.74
-56.52
-55.49
-51.36
-44.41
-35.43
-25.40
-15.17
-5.37
3.75
12.06
19.54
26.27
32.40
38.17
43.83
49.46
54.91
59.93
64.21
67.72
70.80
74.01
77.95
83.02
89.26
96.17
103.16
109.45
114.55
118.34
121.17
123.68
126.38
129.25
131.80
133.27
133.07
131.16
128.05
124.48
121.25
118.99
118.17
119.06
121.40
124.12
125.41
123.09
115.68
103.35
88.17
73.55
62.98
58.84
61.78
70.74
83.58
97.42
109.36
116.86
118.41
113.75
104.03
91.29
77.67
64.72
53.11
42.91
33.83
25.49
17.27
8.32
-2.16
-14.34
-27.15
-38.30
-45.18
-46.06
-41.10
-32.48
-23.52
-17.27
-15.32
-17.27
-21.27
-24.90
-26.19
-24.47
-20.55
-16.58
-15.72
-21.32
-36.11
-61.38
-96.16
-136.99
-178.62
-215.22
-242.14
-257.24
-261.24
-257.06
-248.37
-238.14
-227.98
-218.36
-209.33
-201.25
-194.71
-189.98
-186.38
-182.09
-174.77
-162.83
-146.36
-127.43
-109.52
-96.07
-89.23
-89.03
-93.48
-99.35
-103.50
-103.67
-99.03
-90.04
-77.97
-64.58
-51.82
-41.59
-35.50
-34.24
-37.20
-42.50
-47.72
-51.07
-52.45
-53.55
-56.83
-64.23
-75.69
-89.19
-101.72
-110.75
-115.40
-116.50
-115.73
-114.39
-112.72
-109.86
-104.66
-96.34
-84.94
-71.15
-55.88
-39.85
-23.36
-6.58
10.44
27.33
43.72
59.18
73.38
86.26
97.89
108.38
117.61
125.06
129.99
131.82
130.58
127.03
122.44
117.88
113.73
109.45
103.94
96.22
86.02
73.94
61.20
49.00
38.05
28.46
19.88
11.80
3.91
-3.89
-11.62
-19.36
-27.15
-35.11
-43.05
-50.37
-56.14
-59.28
-59.17
-55.98
-50.66
-44.55
-38.66
-33.13
-27.20
-19.76
-9.93
2.39
16.73
32.53
49.48
67.52
86.18
103.98
118.39
126.43
125.96
116.79
100.88
81.61
62.45
45.72
32.08
20.98
11.50
3.18
-3.61
-8.17
-9.94
-9.00
-6.33
-3.41
-1.74
-2.45
-5.99
-12.09
-20.02
-28.70
-36.89
-43.43
-47.34
-47.98
-45.26
-39.66
-32.28
-24.61
-18.23
-14.39
-13.62
-15.47
-18.49
-20.64
-19.84
-14.68
-4.84
8.78
24.36
39.73
52.95
62.75
68.68
71.15
71.01
69.33
67.02
64.62
62.32
60.04
57.68
55.24
52.80
50.51
48.36
46.09
43.40
40.03
36.06
31.89
28.11
25.09
22.79
20.72
18.12
14.41
9.41
3.42
-2.93
-9.08
-14.77
-20.14
-25.62
-31.72
-38.82
-46.88
-55.37
-63.17
-68.86
-70.97
-68.46
-61.15
-49.69
-35.39
-19.77
-4.07
10.90
24.67
36.98
47.49
55.79
61.63
65.06
66.54
66.84
66.62
66.27
65.75
64.75
62.91
60.15
56.63
52.72
48.87
45.31
42.11
39.13
36.16
33.02
29.62
25.89
21.79
17.32
12.42
7.09
1.38
-4.62
-10.78
-17.14
-23.86
-31.23
-39.52
-48.60
-57.77
-65.79
-71.15
-72.44
-68.85
-60.38
-47.85
-32.62
-16.24
-0.08
14.80
27.75
38.41
46.56
52.20
55.45
56.62
56.29
55.13
53.73
52.44
51.22
49.73
47.58
44.55
40.77
36.72
32.97
29.97
27.85
26.34
24.92
23.04
20.28
16.53
12.02
7.13
2.23
-2.43
-6.87
-11.29
-16.03
-21.48
-27.95
-35.62
-44.27
-53.19
-61.20
-66.81
-68.62
-65.80
-58.28
-46.79
-32.64
-17.31
-2.13
11.92
24.29
34.78
43.41
50.33
55.64
59.37
61.52
62.09
61.20
59.13
56.24
52.87
49.20
45.24
41.01
36.62
32.36
28.65
25.83
23.86
22.40
20.80
18.43
14.96
10.41
5.16
-0.25
-5.40
-10.09
-14.39
-18.59
-23.12
-28.40
-34.81
-42.52
-51.26
-60.36
-68.60
-74.43
-76.40
-73.52
-65.63
-53.48
-38.48
-22.27
-6.40
8.14
20.90
31.83
41.09
48.87
55.17
59.86
62.56
62.99
61.17
57.60
53.19
48.99
45.72
43.51
41.95
40.37
38.30
35.69
32.90
30.34
28.20
26.29
24.21
21.53
18.10
14.03
9.57
4.96
0.34
-4.22
-8.80
-13.44
-18.25
-23.33
-28.83
-34.98
-41.97
-49.76
-57.95
-65.63
-71.46
-74.00
-72.17
-65.58
-54.74
-40.84
-25.37
-9.74
5.03
18.27
29.58
38.73
45.56
50.10
52.61
53.53
53.36
52.51
51.20
49.49
47.29
44.53
41.19
37.39
33.33
29.34
25.71
22.69
20.36
18.58
17.10
15.64
13.98
11.97
9.49
6.45
2.82
-1.20
-5.28
-8.95
-11.83
-13.87
-15.38
-16.96
-19.36
-23.10
-28.44
-35.18
-42.63
-49.70
-55.05
-57.37
-55.73
-49.87
-40.30
-28.18
-14.95
-1.90
9.95
20.05
28.19
34.43
38.90
41.86
43.55
44.22
44.13
43.43
42.24
40.58
38.37
35.59
32.34
28.83
25.37
22.25
19.59
17.37
15.43
13.59
11.71
9.70
7.52
5.12
2.48
-0.37
-3.33
-6.28
-9.09
-11.74
-14.37
-17.22
-20.64
-24.93
-30.29
-36.72
-43.89
-51.12
-57.42
-61.60
-62.62
-59.85
-53.27
-43.44
-31.33
-18.07
-4.67
8.01
19.29
28.61
35.52
39.79
41.46
40.93
38.87
36.04
33.02
30.07
27.07
23.62
19.26
13.71
6.92
-0.79
-8.93
-16.89
-24.14
-30.34
-35.30
-39.02
-41.57
-43.00
-43.31
-42.46
-40.51
-37.67
-34.48
-31.59
-29.61
-28.83
-29.06
-29.80
-30.57
-31.19
-31.97
-33.49
-36.18
-40.03
-44.29
-47.72
-48.97
-47.06
-41.66
-33.12
-22.29
-10.15
2.30
14.26
25.06
34.14
41.18
46.00
48.69
49.56
49.07
47.74
46.03
44.24
42.52
40.84
39.04
36.94
34.48
31.72
28.84
26.07
23.57
21.43
19.64
18.13
16.85
15.73
14.58
13.20
11.35
8.82
5.58
1.84
-2.06
-5.66
-8.66
-11.00
-12.91
-14.90
-17.55
-21.26
-26.19
-32.06
-38.23
-43.80
-47.81
-49.36
-47.87
-43.17
-35.68
-26.31
-16.24
-6.54
2.07
9.39
15.55
20.80
25.27
28.84
31.28
32.48
32.51
31.68
30.38
28.89
27.29
25.59
23.68
21.57
19.40
17.30
15.43
13.84
12.47
11.19
9.87
8.41
6.78
5.04
3.25
1.46
-0.35
-2.27
-4.41
-6.87
-9.64
-12.62
-15.69
-18.79
-21.95
-25.37
-29.29
-33.82
-38.84
-43.85
-48.03
-50.42
-50.16
-46.83
-40.56
-32.04
-22.30
-12.41
-3.11
5.17
12.31
18.29
22.97
26.15
27.72
27.78
26.66
24.92
22.99
21.11
19.24
17.16
14.78
12.15
9.53
7.25
5.51
4.34
3.57
2.97
2.36
1.71
1.07
0.46
-0.19
-1.08
-2.48
-4.56
-7.31
-10.43
-13.53
-16.32
-18.68
-20.81
-23.19
-26.27
-30.29
-35.07
-39.94
-43.92
-46.02
-45.45
-41.98
-35.90
-27.93
-18.95
-9.78
-1.10
6.54
12.72
17.23
19.98
21.19
21.22
20.49
19.26
17.63
15.60
13.20
10.61
8.11
6.00
4.42
3.30
2.42
1.60
0.74
-0.06
-0.71
-1.19
-1.60
-2.14
-3.01
-4.33
-6.09
-8.19
-10.47
-12.80
-15.14
-17.52
-20.10
-23.10
-26.73
-31.07
-35.93
-40.73
-44.62
-46.60
-45.92
-42.24
-35.78
-27.28
-17.76
-8.19
0.65
8.36
14.83
20.05
23.96
26.47
27.40
26.74
24.73
21.85
18.70
15.74
13.14
10.80
8.54
6.28
4.16
2.45
1.38
0.98
1.01
1.04
0.66
-0.44
-2.32
-4.82
-7.62
-10.39
-12.83
-14.85
-16.58
-18.33
-20.51
-23.49
-27.42
-32.26
-37.68
-43.08
-47.65
-50.48
-50.74
-47.96
-42.18
-33.99
-24.39
-14.46
-5.14
2.99
9.75
15.14
19.27
22.21
23.91
24.39
23.76
22.31
20.47
18.67
17.12
15.88
14.81
13.75
12.68
11.66
10.84
10.34
10.11
9.98
9.69
9.01
7.73
5.78
3.18
0.11
-3.13
-6.26
-9.01
-11.37
-13.55
-15.99
-19.14
-23.30
-28.44
-34.17
-39.80
-44.46
-47.27
-47.57
-44.95
-39.46
-31.58
-22.15
-12.21
-2.71
5.68
12.64
18.16
22.40
25.46
27.39
28.21
27.94
26.78
25.01
22.95
20.90
19.01
17.35
15.94
14.76
13.81
13.13
12.68
12.36
12.00
11.36
10.29
8.65
6.50
4.00
1.36
-1.20
-3.57
-5.75
-7.94
-10.45
-13.65
-17.80
-22.92
-28.76
-34.82
-40.44
-44.91
-47.59
-47.90
-45.47
-40.19
-32.34
-22.67
-12.23
-2.09
6.86
14.20
19.92
24.21
27.27
29.17
29.84
29.33
27.78
25.51
22.93
20.42
18.21
16.40
15.00
13.96
13.22
12.66
12.17
11.59
10.80
9.67
8.15
6.16
3.71
0.87
-2.24
-5.39
-8.33
-10.94
-13.22
-15.37
-17.69
-20.50
-24.06
-28.53
-33.85
-39.71
-45.43
-49.98
-52.21
-51.17
-46.43
-38.37
-28.01
-16.66
-5.58
4.37
12.75
19.44
24.45
27.81
29.51
29.63
28.42
26.26
23.69
21.23
19.27
17.97
17.28
16.94
16.70
16.38
15.96
15.55
15.25
15.06
14.86
14.38
13.37
11.68
9.22
6.07
2.43
-1.45
-5.32
-9.01
-12.52
-16.03
-19.79
-24.16
-29.33
-35.34
-41.93
-48.42
-53.86
-57.13
-57.27
-53.73
-46.61
-36.57
-24.75
-12.40
-0.64
9.68
18.11
24.50
28.97
31.82
33.39
34.02
33.96
33.38
32.38
31.13
29.85
28.72
27.90
27.40
27.16
27.09
27.12
27.16
27.08
26.65
25.59
23.68
20.88
17.34
13.45
9.58
5.95
2.59
-0.69
-4.04
-7.50
-11.02
-14.50
-17.94
-21.61
-25.88
-31.10
-37.41
-44.48
-51.51
-57.27
-60.35
-59.58
-54.35
-44.83
-32.05
-17.63
-3.32
9.42
19.76
27.59
33.17
37.00
39.48
40.83
41.29
41.17
40.75
40.30
39.76
38.96
37.67
35.96
34.20
33.02
32.92
34.02
35.95
38.01
39.50
39.99
39.33
37.60
34.98
31.68
27.95
24.16
20.66
17.65
15.06
12.48
9.40
5.53
0.80
-4.40
-9.57
-14.23
-18.16
-21.44
-24.40
-27.48
-31.17
-35.79
-41.33
-47.46
-53.36
-57.89
-59.83
-58.11
-52.27
-42.57
-30.05
-16.24
-2.76
9.06
18.54
25.62
30.72
34.38
37.05
38.85
39.75
39.71
38.90
37.72
36.63
36.00
35.90
36.17
36.47
36.48
36.06
35.27
34.30
33.33
32.43
31.50
30.32
28.67
26.44
23.73
20.77
17.86
15.19
12.74
10.32
7.72
4.78
1.53
-1.86
-5.22
-8.42
-11.47
-14.47
-17.53
-20.70
-24.06
-27.68
-31.69
-36.33
-41.71
-47.72
-53.82
-59.01
-62.03
-61.69
-57.31
-48.97
-37.58
-24.62
-11.63
0.15
10.06
17.94
23.86
28.01
30.53
31.67
31.86
31.67
31.62
31.99
32.72
33.51
34.04
34.12
33.87
33.55
33.40
33.51
33.81
34.09
34.16
33.87
33.13
31.93
30.29
28.35
26.20
23.92
21.49
18.82
15.81
12.49
8.98
5.56
2.47
-0.11
-2.25
-4.18
-6.24
-8.68
-11.55
-14.70
-17.85
-20.75
-23.34
-25.79
-28.46
-31.76
-35.98
-41.15
-46.91
-52.49
-56.85
-58.90
-57.77
-53.13
-45.32
-35.28
-24.29
-13.53
-3.94
4.05
10.36
15.18
18.74
21.31
23.14
24.30
24.74
24.39
23.26
21.65
20.19
19.56
20.21
22.11
24.71
27.26
29.13
30.16
30.60
30.83
31.09
31.26
30.98
29.88
27.94
25.46
22.96
20.88
19.32
18.17
16.99
15.41
13.28
10.74
8.07
5.57
3.40
1.53
-0.22
-2.02
-3.99
-6.17
-8.60
-11.28
-14.21
-17.32
-20.49
-23.52
-26.35
-29.04
-31.82
-35.03
-38.94
-43.56
-48.57
-53.29
-56.76
-58.04
-56.36
-51.44
-43.57
-33.54
-22.51
-11.71
-2.07
5.86
12.06
16.79
20.42
23.16
25.10
26.16
26.35
25.86
25.00
24.12
23.50
23.24
23.30
23.57
23.94
24.36
24.80
25.24
25.62
25.87
25.87
25.52
24.69
23.36
21.64
19.76
17.93
16.35
14.94
13.50
11.76
9.56
6.95
4.18
1.56
-0.70
-2.52
-4.11
-5.68
-7.42
-9.45
-11.71
-14.07
-16.41
-18.69
-21.01
-23.56
-26.45
-29.64
-33.02
-36.37
-39.69
-43.03
-46.49
-49.91
-52.69
-53.88
-52.53
-48.14
-40.88
-31.66
-21.71
-12.18
-3.80
3.17
8.76
13.10
16.30
18.48
19.72
20.23
20.26
20.03
19.78
19.60
19.54
19.63
19.82
20.09
20.44
20.90
21.49
22.20
22.90
23.41
23.51
23.09
22.18
20.97
19.66
18.43
17.30
16.19
14.99
13.65
12.20
10.71
9.17
7.53
5.70
3.58
1.17
-1.42
-4.16
-6.99
-9.87
-12.80
-15.66
-18.29
-20.63
-22.78
-25.12
-28.14
-32.19
-37.23
-42.82
-48.21
-52.63
-55.50
-56.48
-55.39
-52.15
-46.67
-39.09
-29.88
-19.86
-10.08
-1.51
5.32
10.33
13.89
16.54
18.69
20.50
22.01
23.12
23.75
23.95
23.81
23.48
23.06
22.62
22.24
21.97
21.90
22.12
22.68
23.50
24.35
24.90
24.86
24.10
22.73
21.05
19.43
18.08
17.04
16.17
15.24
14.09
12.62
10.79
8.54
5.82
2.66
-0.76
-4.12
-7.13
-9.68
-11.93
-14.20
-16.77
-19.74
-22.93
-26.05
-28.82
-31.17
-33.23
-35.26
-37.54
-40.29
-43.64
-47.53
-51.61
-55.24
-57.48
-57.34
-54.14
-47.81
-38.99
-28.87
-18.77
-9.73
-2.24
3.70
8.41
12.18
15.16
17.33
18.69
19.39
19.67
19.90
20.27
20.83
21.43
21.89
22.19
22.39
22.70
23.24
23.98
24.75
25.30
25.41
24.94
23.75
21.82
19.24
16.27
13.40
11.09
9.56
8.65
7.87
6.66
4.74
2.26
-0.32
-2.54
-4.23
-5.63
-7.17
-9.28
-12.06
-15.29
-18.55
-21.45
-23.83
-25.71
-27.37
-29.21
-31.64
-34.95
-39.25
-44.34
-49.64
-54.21
-57.00
-57.09
-53.99
-47.86
-39.45
-29.97
-20.62
-12.23
-5.16
0.73
5.79
10.21
14.02
17.01
18.99
20.04
20.48
20.77
21.36
22.37
23.69
25.04
26.18
27.04
27.77
28.53
29.40
30.29
30.97
31.20
30.91
30.17
29.20
28.08
26.65
24.63
21.80
18.15
14.09
10.26
7.20
5.19
4.00
3.14
2.12
0.62
-1.42
-3.88
-6.67
-9.76
-13.15
-16.75
-20.37
-23.73
-26.73
-29.46
-32.25
-35.53
-39.64
-44.59
-49.92
-54.74
-57.90
-58.28
-55.17
-48.48
-38.87
-27.55
-15.91
-5.18
3.87
10.95
16.13
19.75
22.19
23.92
25.35
26.78
28.37
30.02
31.49
32.57
33.16
33.32
33.24
33.10
32.96
32.80
32.57
32.27
31.90
31.41
30.66
29.46
27.65
25.27
22.54
19.75
17.16
14.84
12.71
10.56
8.28
5.81
3.25
0.76
-1.52
-3.49
-5.13
-6.59
-8.07
-9.85
-12.14
-15.00
-18.25
-21.57
-24.63
-27.25
-29.52
-31.70
-34.21
-37.37
-41.36
-46.15
-51.47
-56.76
-61.27
-64.03
-64.11
-60.91
-54.34
-45.01
-34.03
-22.70
-12.21
-3.27
3.92
9.56
13.98
17.37
19.70
20.89
21.05
20.62
20.30
20.77
22.35
24.83
27.61
29.95
31.41
32.01
32.05
31.92
31.85
31.81
31.61
31.09
30.18
28.93
27.48
25.93
24.43
23.02
21.67
20.33
18.83
17.09
15.06
12.84
10.60
8.60
6.94
5.56
4.22
2.61
0.47
-2.24
-5.37
-8.63
-11.74
-14.59
-17.20
-19.74
-22.33
-25.10
-28.10
-31.40
-35.11
-39.31
-43.90
-48.46
-52.20
-54.15
-53.46
-49.71
-43.10
-34.38
-24.68
-15.06
-6.31
1.18
