1723823241.00
64.000000
-0.00
-0.00
-0.00
-0.00
-0.00
-0.00
-0.00
-0.00
-0.00
-0.00
0.00
0.01
0.01
-0.00
-0.03
-0.05
-0.05
0.00
0.13
0.36
0.66
1.01
1.37
1.72
2.06
2.40
2.79
3.24
3.80
4.42
5.06
5.66
6.20
6.68
7.15
7.68
8.31
9.14
10.09
11.04
11.88
12.56
13.14
13.76
14.65
15.96
17.91
20.32
22.90
25.38
27.58
29.57
31.68
34.32
37.81
42.54
48.15
54.10
59.83
64.97
69.58
74.14
79.34
85.71
93.76
103.00
112.62
121.73
129.77
136.75
143.30
150.75
157.77
166.64
177.95
191.79
206.97
220.57
228.25
225.36
208.53
176.87
132.76
80.05
23.07
-34.94
-92.44
-149.16
-205.23
-260.37
-313.74
-363.87
-409.83
-450.91
-486.50
-515.74
-537.23
-549.22
-549.96
-538.37
-514.21
-478.67
-433.88
-382.45
-327.02
-269.84
-212.63
-156.66
-102.95
-52.37
-5.90
35.58
71.43
101.35
125.50
144.38
158.69
169.15
176.37
180.75
182.57
182.07
179.51
175.23
169.65
163.18
156.15
148.81
141.30
133.69
126.02
118.33
110.69
103.16
95.80
88.68
81.83
75.25
68.95
62.95
57.25
51.86
46.78
42.03
37.59
33.45
29.62
26.07
22.81
19.82
17.11
14.67
12.49
10.56
8.85
7.35
6.04
4.90
3.92
3.10
2.43
1.90
1.46
1.11
0.80
0.54
0.31
0.12
-0.03
-0.13
-0.18
-0.21
-0.25
-0.31
-0.42
-0.58
-0.74
-0.88
-0.95
-0.93
-0.85
-0.79
-0.81
-0.95
-1.22
-1.55
-1.82
-1.96
-1.93
-1.82
-1.76
-1.89
-2.29
-2.92
-3.61
-4.18
-4.47
-4.46
-4.28
-4.17
-4.35
-4.97
-5.94
-7.05
-7.99
-8.56
-8.66
-8.40
-8.01
-7.70
-7.72
-8.31
-9.69
-11.85
-14.29
-15.95
-15.48
-11.89
-5.18
3.35
11.68
18.02
21.66
23.26
24.19
25.59
27.78
30.14
31.78
32.33
32.10
31.84
32.17
33.05
34.04
34.99
36.42
39.31
44.36
51.00
57.01
59.34
55.48
44.86
29.42
12.87
-0.89
-9.27
-11.87
-10.41
-7.13
-4.10
-2.37
-1.89
-2.36
-3.78
-6.32
-9.75
-12.89
-13.62
-10.15
-2.16
8.52
18.29
23.60
22.67
16.46
7.91
0.20
-5.04
-8.51
-12.00
-17.16
-24.19
-31.96
-38.94
-44.43
-49.07
-53.45
-59.33
-66.88
-75.06
-81.74
-85.29
-85.06
-81.99
-78.11
-75.65
-76.42
-81.17
-89.83
-101.32
-113.47
-122.82
-125.18
-117.00
-97.21
-68.39
-36.02
-6.72
14.66
26.69
31.64
33.24
34.65
36.98
39.46
40.89
41.09
41.15
42.72
46.74
52.54
58.03
60.77
58.99
52.76
44.05
35.82
30.80
30.20
33.19
37.28
39.49
37.79
32.17
24.79
18.96
17.64
21.94
30.45
39.82
46.21
47.21
42.94
36.19
30.84
30.28
35.85
46.71
60.63
74.96
86.57
91.64
86.23
67.73
37.43
2.09
-27.17
-39.61
-30.51
-4.55
25.71
46.09
47.76
31.48
6.32
-16.07
-27.64
-27.05
-18.34
-7.00
3.79
13.82
24.24
35.37
45.36
50.97
49.34
39.85
24.02
5.95
-10.07
-20.91
-25.51
-24.91
-21.47
-17.96
-16.65
-18.58
-23.11
-28.45
-32.28
-32.76
-29.31
-22.74
-14.88
-7.78
-2.89
-0.55
-0.36
-1.38
-2.76
-4.07
-5.27
-6.45
-7.65
-8.69
-9.35
-9.67
-9.94
-10.63
-12.12
-14.40
-17.04
-19.27
-20.22
-19.16
-15.78
-10.23
-3.26
3.83
9.59
12.76
12.88
10.54
7.14
4.41
3.61
5.02
7.91
10.99
12.89
12.83
10.75
7.25
3.43
0.40
-1.04
-0.52
1.66
4.71
7.60
9.38
9.49
7.86
4.85
1.08
-2.61
-5.40
-6.43
-5.03
-1.11
4.55
10.38
14.18
14.05
9.11
-0.01
-11.24
-21.71
-28.87
-31.29
-28.96
-23.22
-15.93
-8.88
-3.36
0.05
1.29
0.69
-1.10
-3.20
-4.65
-4.56
-2.47
1.49
6.59
11.67
15.60
17.60
17.40
15.21
11.65
7.45
3.39
0.19
-1.67
-1.98
-1.00
0.65
2.15
2.72
1.88
-0.41
-3.78
-7.60
-11.17
-13.96
-15.72
-16.63
-17.29
-18.51
-20.99
-24.91
-29.76
-34.30
-37.13
-37.05
-33.73
-27.77
-20.50
-13.53
-8.26
-5.47
-5.30
-7.28
-10.54
-14.09
-16.97
-18.33
-17.67
-14.82
-10.10
-4.27
1.55
6.25
8.96
9.43
8.17
6.17
4.64
4.42
5.67
7.93
10.29
11.91
12.32
11.58
10.06
8.39
7.03
6.21
5.99
6.09
6.23
6.09
5.44
4.26
2.79
1.34
0.28
-0.15
-0.01
0.48
1.00
1.20
0.81
-0.23
-1.87
-3.81
-5.69
-7.15
-7.96
-8.17
-8.08
-8.05
-8.45
-9.43
-10.85
-12.34
-13.36
-13.42
-12.31
-10.16
-7.35
-4.50
-2.13
-0.45
0.58
1.31
2.10
3.05
4.05
4.73
4.69
3.83
2.44
1.06
0.26
0.33
1.07
2.02
2.61
2.55
1.92
1.03
0.18
-0.45
-0.92
-1.32
-1.64
-1.81
-1.80
-1.75
-1.96
-2.79
-4.29
-6.26
-8.24
-9.73
-10.48
-10.47
-10.00
-9.59
-9.69
-10.55
-11.97
-13.31
-13.70
-12.50
-9.54
-5.28
-0.63
3.59
6.85
9.19
10.86
11.98
12.39
11.73
9.79
6.80
3.47
0.61
-1.15
-1.70
-1.43
-0.94
-0.73
-0.96
-1.51
-2.08
-2.47
-2.65
-2.78
-3.09
-3.66
-4.52
-5.53
-6.55
-7.54
-8.56
-9.71
-11.05
-12.44
-13.50
-13.89
-13.37
-12.06
-10.47
-9.24
-8.96
-9.82
-11.44
-12.97
-13.41
-11.96
-8.44
-3.43
2.05
6.85
10.14
11.70
11.77
10.92
9.67
8.29
6.83
5.31
3.69
2.23
1.27
1.06
1.70
3.05
4.68
6.15
7.10
7.34
6.94
6.13
5.14
4.20
3.42
2.82
2.42
2.18
1.99
1.73
1.23
0.30
-0.99
-2.50
-3.90
-4.75
-4.83
-4.12
-2.93
-1.89
-1.57
-2.26
-3.95
-6.24
-8.61
-10.64
-11.97
-12.30
-11.39
-9.02
-5.27
-0.66
3.94
7.58
9.69
10.37
10.29
10.26
10.79
11.74
12.54
12.71
12.20
11.56
11.56
12.61
14.44
16.30
17.35
17.33
16.74
16.51
17.40
19.53
22.14
24.13
24.63
23.62
22.05
21.33
22.63
26.20
31.10
35.66
38.17
37.76
34.94
31.46
29.66
31.40
37.28
46.31
56.35
64.93
70.29
72.16
71.79
71.82
75.48
85.66
103.56
127.66
153.11
172.40
177.54
163.14
129.36
82.84
34.78
-3.01
-22.54
-22.24
-6.39
17.94
44.42
69.61
92.54
112.65
127.96
134.82
129.71
111.68
83.90
53.15
27.27
11.73
7.36
9.84
11.02
1.77
-25.11
-72.22
-136.04
-207.01
-271.78
-317.16
-334.43
-322.59
-288.78
-246.32
-210.24
-192.42
-198.06
-224.11
-260.52
-293.59
-310.46
-303.75
-274.81
-234.00
-197.47
-180.86
-192.60
-229.99
-280.15
-325.67
-351.69
-351.20
-325.88
-282.89
-230.29
-173.39
-114.33
-53.89
6.25
63.00
113.56
157.69
198.29
239.53
283.48
326.89
361.10
375.04
359.94
313.62
242.08
157.65
75.11
7.35
-37.66
-57.68
-55.49
-37.18
-10.21
18.07
41.63
56.77
62.56
60.79
55.25
50.66
50.89
57.55
69.05
80.95
87.49
83.83
67.96
41.54
9.24
-22.95
-49.39
-66.16
-71.47
-65.59
-50.71
-30.54
-9.81
6.69
15.34
14.87
6.70
-5.69
-18.09
-27.10
-30.95
-29.54
-23.99
-15.74
-5.97
4.65
16.01
28.50
42.51
58.18
75.00
91.58
106.07
116.70
122.57
123.93
122.08
118.51
114.22
109.13
102.23
92.16
77.67
58.13
33.48
4.41
-27.64
-60.33
-90.76
-116.04
-134.20
-144.85
-149.18
-149.33
-147.34
-144.25
-139.84
-132.96
-122.35
-107.26
-87.93
-65.48
-41.67
-18.50
2.19
19.06
31.42
39.34
43.39
44.26
42.52
38.39
31.99
23.53
13.38
2.40
-8.29
-17.31
-23.29
-24.89
-21.19
-11.89
2.33
19.75
38.15
55.33
69.85
81.31
90.02
96.36
100.10
100.14
94.89
83.11
64.71
41.35
16.22
-6.88
-24.60
-35.06
-38.31
-36.10
-30.99
-25.56
-21.42
-18.94
-17.49
-15.93
-13.22
-8.90
-3.24
2.71
7.44
9.42
7.48
1.29
-8.37
-19.88
-31.09
-39.96
-45.20
-46.53
-44.78
-41.70
-39.28
-39.24
-42.45
-48.66
-56.55
-64.23
-69.68
-71.40
-68.73
-61.86
-51.72
-39.60
-26.78
-14.41
-3.31
5.94
13.02
17.85
20.45
20.86
19.20
15.80
11.24
6.48
2.71
0.90
1.55
4.46
8.75
13.30
17.15
19.64
20.60
20.09
18.25
15.32
11.59
7.43
3.33
-0.32
-3.36
-5.92
-8.39
-11.19
-14.58
-18.52
-22.48
-25.61
-26.98
-25.83
-21.91
-15.72
-8.35
-1.16
4.61
8.34
10.26
11.28
12.67
15.29
19.11
23.21
26.25
27.23
26.13
23.93
22.05
21.61
22.88
25.19
27.40
28.43
27.82
25.79
23.00
20.33
18.58
18.26
19.81
23.40
28.94
36.11
44.31
52.64
60.06
65.48
68.10
67.54
64.09
58.70
52.65
47.10
42.64
39.13
35.83
31.92
26.94
21.12
15.36
10.79
8.20
7.69
8.59
9.73
10.14
9.34
7.40
4.74
1.69
-1.77
-5.78
-10.33
-14.91
-18.44
-19.75
-18.15
-13.88
-8.16
-2.64
1.29
2.93
2.28
-0.20
-3.98
-8.47
-12.89
-16.19
-17.23
-15.12
-9.84
-2.20
6.32
14.24
20.64
25.22
28.09
29.39
29.07
26.97
23.24
18.46
13.58
9.60
7.12
6.21
6.57
7.74
9.30
11.02
12.59
13.76
14.31
14.16
13.56
12.96
12.71
12.71
12.36
10.60
6.46
-0.52
-10.05
-21.00
-31.65
-39.98
-43.89
-41.62
-32.21
-15.82
5.85
29.82
52.48
70.43
81.52
85.21
82.27
74.10
62.09
47.23
30.38
12.56
-4.96
-20.73
-33.47
-42.48
-47.58
-49.00
-47.15
-42.43
-35.43
-26.92
-17.96
-9.69
-3.06
1.41
3.63
3.84
2.42
-0.35
-4.37
-9.64
-16.22
-23.84
-31.82
-39.11
-44.58
-47.37
-47.35
-45.01
-41.09
-36.24
-30.62
-24.08
-16.59
-8.54
-0.84
5.32
9.15
10.39
9.52
7.45
4.96
2.57
0.41
-1.45
-2.96
-4.05
-4.98
-6.37
-9.05
-13.48
-19.21
-24.67
-27.63
-26.05
-19.08
-7.57
6.28
19.84
30.95
38.65
42.96
44.38
43.30
39.71
33.52
25.03
15.30
6.11
-0.51
-3.18
-1.69
2.91
8.66
13.56
16.25
16.27
14.02
10.44
6.41
2.65
-0.53
-3.20
-5.72
-8.60
-12.32
-17.03
-22.45
-28.03
-33.12
-37.41
-41.15
-44.88
-49.11
-53.57
-56.83
-56.49
-50.04
-35.96
-14.64
11.89
40.96
70.56
100.25
130.82
163.23
197.52
232.59
266.68
298.47
327.34
352.73
373.14
385.66
386.77
374.08
347.97
311.82
270.69
229.00
188.73
149.17
108.24
64.44
18.26
-28.03
-71.65
-111.11
-147.24
-182.80
-221.45
-266.40
-319.20
-378.95
-441.98
-501.61
-549.04
-575.55
-575.72
-550.26
-506.56
-456.01
-409.17
-371.13
-339.74
-307.61
-266.58
-212.29
-146.37
-75.62
-9.06
45.55
84.10
106.56
115.92
116.60
112.78
107.38
101.89
96.79
92.17
88.47
86.46
86.53
88.29
90.47
91.51
90.56
88.08
85.64
84.96
86.90
90.85
94.97
96.90
94.90
88.64
79.27
68.98
59.88
53.41
50.00
49.35
50.78
53.64
57.30
61.11
64.49
67.22
69.79
73.16
78.26
85.38
93.82
102.22
109.17
113.93
116.59
117.77
118.01
117.30
115.04
110.55
103.51
94.30
83.81
73.00
62.63
53.20
45.14
39.11
35.81
35.75
38.81
44.00
49.54
53.40
53.80
49.80
41.47
29.72
15.92
1.35
-13.35
-28.32
-44.27
-61.98
-81.67
-102.42
-122.28
-138.64
-149.05
-152.12
-147.90
-137.82
-124.25
-109.78
-96.56
-86.03
-78.65
-74.12
-71.43
-69.13
-65.78
-60.43
-52.97
-44.34
-36.28
-30.56
-28.34
-29.38
-32.18
-34.64
-34.94
-32.21
-26.83
-20.03
-13.20
-7.50
-3.55
-1.44
-1.09
-2.34
-5.26
-9.92
-16.14
-23.05
-29.06
-32.16
-30.89
-25.26
-17.05
-9.46
-5.71
-7.67
-15.17
-26.24
-38.14
-48.78
-57.27
-63.79
-69.08
-73.59
-77.16
-79.26
-79.20
-76.39
-70.59
-61.88
-50.73
-38.08
-25.16
-13.36
-3.95
2.36
5.53
6.28
5.86
5.61
6.45
8.65
11.63
14.43
16.13
16.04
13.95
10.01
4.59
-1.61
-7.42
-11.37
-11.91
-8.02
0.23
11.66
24.34
36.24
45.98
52.89
56.93
58.35
57.35
54.24
49.59
44.31
39.47
36.01
34.30
34.12
34.84
35.67
36.04
35.84
35.18
34.39
33.75
33.35
33.14
33.07
33.06
33.17
33.46
33.83
34.18
34.34
34.29
34.11
33.75
32.95
31.29
28.50
24.81
21.15
18.67
18.35
20.38
23.96
27.77
30.55
31.53
30.70
28.48
25.36
21.69
17.80
14.02
10.92
8.96
8.34
8.78
9.52
9.47
7.77
3.96
-1.75
-8.48
-15.05
-20.38
-23.83
-25.46
-25.76
-25.34
-24.65
-23.81
-22.65
-21.19
-19.57
-18.08
-17.07
-16.72
-17.07
-18.23
-20.18
-22.66
-24.95
-25.94
-24.43
-19.83
-12.37
-3.28
5.79
13.46
18.94
22.19
23.61
23.64
22.59
20.74
18.43
16.16
14.47
13.60
13.52
13.89
14.20
14.04
13.15
11.44
9.00
6.05
2.92
-0.03
-2.53
-4.50
-6.02
-7.44
-9.08
-11.14
-13.64
-16.36
-18.90
-20.99
-22.47
-23.37
-23.88
-24.23
-24.62
-25.51
-27.47
-31.10
-36.68
-43.67
-50.68
-55.81
-57.22
-53.98
-46.38
-35.81
-24.23
-13.42
-4.56
1.90
6.07
8.33
9.07
8.71
7.70
6.51
5.56
5.22
5.62
6.76
8.51
10.50
12.33
13.56
13.97
13.63
12.89
12.16
11.80
11.91
12.36
12.99
13.70
14.59
15.80
17.36
19.11
20.73
21.83
22.19
21.84
20.86
19.39
17.58
15.61
13.74
12.24
11.18
10.51
10.19
10.32
11.29
13.60
17.51
22.84
28.86
34.54
38.93
41.35
41.52
39.53
35.72
30.66
25.18
20.14
16.28
13.98
13.02
12.74
12.35
11.13
8.74
5.29
1.16
-3.10
-6.93
-9.99
-12.16
-13.50
-14.22
-14.44
-14.17
-13.42
-12.22
-10.86
-9.74
-9.26
-9.60
-10.65
-12.00
-13.16
-13.73
-13.51
-12.67
-11.63
-10.98
-11.54
-13.97
-18.36
-24.00
-29.20
-31.80
-30.06
-23.43
-13.03
-1.40
8.42
13.88
13.83
8.81
0.87
-7.24
-12.68
-13.25
-7.82
3.52
19.44
37.60
55.14
69.11
77.15
78.06
72.16
61.38
48.84
37.82
30.77
28.50
29.99
33.00
35.03
34.19
29.87
22.69
13.97
5.20
-2.49
-8.72
-13.64
-17.84
-21.97
-26.42
-31.28
-36.33
-41.12
-45.28
-48.51
-50.66
-51.92
-52.73
-53.89
-56.33
-60.55
-66.12
-71.68
-75.13
-74.55
-69.09
-59.27
-46.81
-33.95
-22.49
-13.42
-6.85
-2.29
0.85
3.00
4.46
5.42
6.08
6.65
7.24
7.76
7.98
7.51
6.08
3.85
1.33
-0.61
-1.08
0.21
2.89
5.94
8.00
8.11
6.02
2.21
-2.31
-6.46
-9.57
-11.43
-12.28
-12.57
-12.64
-12.68
-12.70
-12.65
-12.62
-12.80
-13.32
-14.23
-15.39
-16.51
-17.56
-18.95
-21.41
-25.70
-31.94
-39.16
-45.52
-48.88
-47.65
-41.58
-31.75
-20.28
-9.52
-1.30
3.43
4.65
3.15
0.11
-3.22
-5.84
-7.27
-7.60
-7.27
-6.85
-6.66
-6.69
-6.86
-7.11
-7.48
-8.05
-8.68
-8.93
-8.27
-6.33
-3.18
0.56
3.97
6.18
6.68
5.53
3.27
0.64
-1.69
-3.29
-3.98
-3.67
-2.33
0.09
3.53
7.53
11.34
14.01
14.75
13.28
9.94
5.34
0.17
-5.12
-10.28
-15.01
-18.75
-20.76
-20.28
-16.88
-10.81
-2.84
5.79
13.81
20.15
24.15
25.54
24.58
21.92
18.55
15.59
13.84
13.53
14.27
15.15
15.32
14.43
12.82
11.45
11.52
13.69
17.86
23.09
27.99
31.37
32.67
32.03
30.22
28.13
26.41
25.40
25.02
25.01
25.09
25.07
24.92
24.85
25.13
26.10
28.05
30.92
34.29
37.47
39.65
40.32
39.40
37.13
33.97
30.35
26.64
23.21
20.56
19.13
19.27
20.90
23.44
25.95
27.49
27.36
25.40
21.88
17.32
12.33
7.42
2.97
-0.82
-4.00
-6.83
-9.61
-12.63
-16.01
-19.60
-23.14
-26.12
-28.02
-28.53
-27.56
-25.31
-22.26
-18.89
-15.51
-12.24
-9.06
-5.98
-3.20
-1.03
0.13
-0.03
-1.71
-5.10
-10.32
-17.14
-24.83
-32.01
-36.94
-38.26
-35.45
-29.09
-20.64
-11.71
-3.42
3.85
10.30
16.24
21.70
26.41
30.02
32.36
33.63
34.18
34.32
34.17
33.52
32.10
29.72
26.45
22.63
18.77
15.28
12.33
9.84
7.50
4.92
1.87
-1.71
-5.63
-9.49
-12.84
-15.34
-16.82
-17.41
-17.36
-16.92
-16.21
-15.16
-13.71
-12.06
-10.71
-10.50
-12.21
-16.26
-22.58
-30.52
-38.97
-46.59
-51.95
-53.86
-51.70
-45.63
-36.69
-26.61
-17.29
-10.33
-6.61
-6.11
-8.02
-11.14
-14.14
-16.06
-16.45
-15.39
-13.31
-10.68
-7.74
-4.54
-1.15
2.13
4.61
5.56
4.71
2.44
-0.18
-1.94
-2.11
-0.77
1.37
3.23
4.08
3.71
2.41
0.76
-0.72
-1.86
-2.79
-3.97
-5.97
-9.18
-13.61
-18.86
-24.10
-28.48
-31.45
-32.86
-33.07
-32.68
-32.33
-32.72
-34.32
-37.16
-40.78
-44.05
-45.55
-44.15
-39.56
-32.58
-24.90
-18.36
-14.20
-12.75
-13.35
-14.87
-16.27
-16.96
-16.90
-16.49
-16.12
-15.98
-15.83
-15.04
-13.06
-9.73
-5.43
-1.06
2.53
5.03
6.75
8.49
10.96
14.33
18.13
21.56
23.83
24.56
23.75
21.71
18.86
15.66
12.58
10.11
8.54
7.87
7.75
7.54
6.63
4.76
2.13
-0.66
-2.75
-3.43
-2.23
0.86
5.30
10.13
14.17
16.44
16.57
15.05
12.94
11.60
12.05
14.59
18.81
23.77
28.41
31.94
33.93
34.34
33.46
31.74
29.67
27.72
26.12
24.92
23.94
22.79
21.10
18.62
15.30
11.43
7.69
4.88
3.68
4.35
6.47
9.10
11.12
11.66
10.52
8.26
5.86
4.43
4.64
6.61
9.94
13.97
18.07
21.84
25.03
27.49
29.04
29.54
29.04
27.83
26.20
24.25
21.77
18.23
13.33
7.30
0.99
-4.26
-7.23
-7.33
-4.84
-0.82
3.27
6.17
7.11
5.98
3.21
-0.52
-4.50
-8.12
-10.98
-12.84
-13.51
-12.96
-11.31
-8.83
-6.04
-3.38
-1.10
0.77
2.42
4.04
5.63
7.03
8.08
8.66
8.87
8.89
8.86
8.84
8.75
8.50
8.02
7.31
6.40
5.38
4.27
3.04
1.73
0.35
-0.86
-1.64
-1.87
-1.69
-1.51
-1.82
-2.77
-3.92
-4.43
-3.41
-0.39
4.29
9.72
14.66
18.06
19.34
18.42
15.64
11.71
7.45
3.77
1.35
0.47
0.89
2.03
3.12
3.56
3.07
1.60
-0.74
-3.67
-6.88
-9.92
-12.29
-13.65
-13.87
-13.07
-11.72
-10.33
-9.44
-9.42
-10.32
-11.89
-13.63
-14.91
-15.28
-14.63
-13.16
-11.30
-9.42
-7.70
-6.13
-4.67
-3.34
-2.34
-1.88
-1.98
-2.52
-3.32
-4.40
-6.21
-9.46
-14.63
-21.55
-29.02
-35.19
-38.19
-36.90
-31.41
-23.04
-13.77
-5.58
0.05
2.62
2.45
0.47
-2.09
-4.29
-5.59
-5.88
-5.38
-4.30
-2.76
-0.95
0.76
1.78
1.35
-0.90
-4.76
-9.42
-13.78
-16.97
-18.76
-19.46
-19.66
-19.84
-20.09
-20.33
-20.34
-20.07
-19.66
-19.32
-19.10
-18.91
-18.43
-17.35
-15.56
-13.20
-10.67
-8.52
-7.20
-6.85
-7.31
-8.11
-8.65
-8.45
-7.24
-5.08
-2.40
0.06
1.41
0.91
-1.53
-5.20
-8.67
-10.24
-8.77
-4.16
2.59
9.66
15.31
18.48
19.04
17.65
15.36
13.07
11.40
10.56
10.51
11.07
12.04
13.17
14.31
15.22
15.64
15.39
14.37
12.69
10.70
8.78
7.22
6.17
5.60
5.41
5.63
6.28
7.35
8.79
10.28
11.55
12.43
12.90
13.15
13.49
14.15
15.29
16.91
18.90
21.13
23.46
25.65
27.39
28.31
27.98
26.28
23.49
20.27
17.45
15.52
14.50
13.96
13.40
12.73
12.47
13.45
16.35
21.22
27.32
33.40
38.18
40.70
40.57
37.90
33.09
26.79
19.79
12.94
7.04
2.64
-0.22
-1.91
-3.17
-4.76
-7.07
-10.03
-13.13
-15.63
-17.00
-17.16
-16.44
-15.55
-15.10
-15.45
-16.68
-18.57
-20.79
-23.00
-24.75
-25.52
-24.83
-22.38
-18.29
-13.19
-8.02
-3.79
-1.12
-0.00
0.09
-0.07
0.20
1.20
2.92
5.17
7.61
9.83
11.35
11.68
10.59
8.40
5.91
4.22
4.16
5.88
8.84
11.99
14.24
14.96
14.12
12.17
9.90
7.99
6.78
6.19
5.75
4.98
3.65
1.90
0.15
-1.17
-2.07
-2.96
-4.32
-6.49
-9.32
-12.24
-14.70
-16.41
-17.43
-18.10
-18.79
-19.66
-20.78
-22.04
-23.35
-24.57
-25.50
-25.86
-25.50
-24.38
-22.72
-20.96
-19.56
-18.94
-19.33
-20.73
-23.10
-26.24
-29.80
-33.36
-36.40
-38.59
-40.08
-41.42
-43.21
-45.69
-48.27
-49.65
-48.52
-44.20
-37.18
-28.96
-21.36
-15.70
-12.39
-10.91
-10.37
-10.02
-9.51
-8.86
-8.20
-7.55
-6.85
-5.90
-4.54
-2.79
-0.85
0.96
2.30
3.03
3.31
3.55
4.23
5.69
7.83
10.27
12.48
14.03
14.81
14.87
14.38
13.46
12.11
10.43
8.61
6.97
5.87
5.57
6.06
7.22
8.83
10.61
12.30
13.63
14.28
14.12
13.22
11.79
10.12
8.31
6.23
3.88
1.55
-0.13
-0.39
1.04
3.65
6.19
7.12
5.37
0.93
-5.27
-11.52
-16.14
-17.97
-16.61
-12.45
-6.51
-0.00
5.99
10.77
14.30
16.90
18.99
20.77
22.21
23.13
23.64
24.21
25.50
28.00
31.68
35.85
39.59
42.01
42.73
41.92
40.04
37.58
34.94
32.32
29.95
28.26
27.66
28.41
30.34
32.66
34.30
34.31
32.08
27.57
21.06
12.92
3.74
-5.70
-14.20
-20.34
-22.88
-21.25
-15.90
-8.19
0.06
7.26
12.38
15.21
16.07
15.54
14.21
12.63
11.14
9.99
9.26
8.76
8.22
7.20
5.28
2.22
-1.85
-6.43
-10.65
-13.59
-14.67
-13.88
-11.86
-9.62
-8.12
-7.85
-8.63
-9.75
-10.40
-9.96
-8.33
-5.95
-3.46
-1.48
-0.46
-0.55
-1.71
-3.76
-6.40
-9.19
-11.74
-13.80
-15.56
-17.75
-21.42
-27.43
-35.90
-45.74
-54.92
-61.14
-62.75
-59.51
-52.60
-44.10
-36.27
-30.74
-28.13
-28.21
-30.12
-32.67
-34.82
-35.75
-35.07
-32.91
-29.64
-25.75
-21.70
-17.81
-14.32
-11.66
-10.23
-10.28
-11.69
-13.77
-15.53
-16.09
-15.07
-12.70
-9.72
-6.94
-4.96
-3.95
-3.71
-3.87
-4.02
-3.88
-3.33
-2.35
-0.89
1.07
3.61
6.80
10.41
14.07
17.26
19.42
20.38
20.31
19.63
18.72
17.57
15.70
12.52
7.82
2.10
-3.34
-7.00
-7.83
-5.66
-1.33
3.84
8.68
12.42
14.85
16.14
16.50
16.27
15.86
15.81
16.66
18.78
22.07
26.08
30.13
33.56
35.96
37.25
37.55
37.13
36.31
35.32
34.36
33.43
32.43
31.20
29.57
27.51
25.17
22.77
20.55
18.76
17.44
16.63
16.25
16.07
15.78
15.05
13.55
11.18
8.15
4.87
1.89
-0.40
-1.94
-2.85
-3.47
-4.17
-5.24
-7.00
-9.68
-13.22
-17.22
-20.79
-22.80
-22.35
-19.01
-13.05
-5.48
2.40
9.30
14.24
16.84
17.32
16.31
14.74
13.38
12.67
12.66
13.17
13.94
14.85
15.84
16.79
17.45
17.38
16.14
13.64
10.12
6.16
2.54
-0.14
-1.67
-2.24
-2.48
-3.09
-4.47
-6.59
-8.88
-10.52
-10.91
-9.86
-7.63
-4.82
-2.00
0.41
2.06
2.72
2.15
0.24
-2.74
-6.29
-9.83
-12.83
-15.16
-16.95
-18.47
-20.07
-22.08
-24.77
-28.30
-32.50
-36.69
-39.95
-41.32
-40.28
-37.07
-32.55
-27.87
-24.09
-21.76
-20.92
-21.22
-22.09
-22.92
-23.23
-22.66
-21.09
-18.61
-15.43
-11.91
-8.47
-5.60
-3.83
-3.56
-4.81
-7.16
-9.76
-11.62
-12.14
-11.33
-9.76
-8.46
-8.34
-9.86
-12.90
-16.80
-20.69
-23.75
-25.44
-25.60
-24.38
-22.09
-19.10
-15.79
-12.55
-9.84
-8.10
-7.52
-8.07
-9.33
-10.65
-11.46
-11.42
-10.49
-8.95
-7.18
-5.57
-4.59
-4.65
-5.97
-8.43
-11.32
-13.51
-13.90
-11.81
-7.35
-1.47
4.56
9.54
12.81
14.30
14.36
13.56
12.54
11.81
11.71
12.41
13.75
15.44
17.20
18.82
20.30
21.70
22.95
23.87
24.29
24.11
23.51
22.78
22.14
21.66
21.17
20.42
19.32
17.96
16.44
14.84
13.05
10.88
8.36
5.76
3.75
3.06
4.12
6.81
10.50
14.19
17.06
18.73
19.31
19.26
19.12
19.23
19.76
20.80
22.17
23.50
24.07
23.05
19.89
14.81
8.90
3.90
1.50
2.63
7.12
13.78
20.81
26.52
29.74
30.05
27.80
23.84
19.23
15.00
11.80
9.83
8.94
8.68
8.59
8.33
7.60
6.27
4.36
2.05
-0.31
-2.24
-3.39
-3.62
-3.01
-1.90
-0.63
0.50
1.30
1.75
1.92
1.97
2.19
2.84
4.14
6.21
8.89
11.73
14.16
15.44
15.07
12.92
9.17
4.36
-0.91
-6.17
-11.14
-15.70
-19.88
-23.68
-27.00
-29.62
-31.16
-31.20
-29.53
-26.17
-21.50
-16.12
-10.60
-5.35
-0.64
3.38
6.50
8.53
9.42
9.35
8.69
7.87
7.13
6.49
5.87
5.18
4.39
3.51
2.31
0.55
-1.83
-4.56
-6.92
-8.06
-7.50
-5.38
-2.46
0.20
1.83
2.13
1.25
-0.47
-2.77
-5.53
-8.60
-11.64
-14.12
-15.48
-15.59
-14.78
-13.83
-13.72
-15.13
-18.07
-21.98
-25.91
-28.92
-30.51
-30.62
-29.63
-28.31
-27.55
-28.22
-30.90
-35.51
-41.12
-46.23
-49.14
-48.66
-44.60
-37.76
-29.69
-22.07
-16.18
-12.70
-11.57
-12.18
-13.67
-15.13
-15.84
-15.50
-14.22
-12.27
-9.97
-7.42
-4.61
-1.66
1.07
3.04
3.75
3.16
1.75
0.27
-0.51
-0.22
1.10
3.18
5.66
8.31
10.94
13.29
14.98
15.68
15.17
13.60
11.49
9.50
8.26
8.19
9.25
11.05
12.96
14.21
14.25
12.94
10.55
7.76
5.39
4.05
4.02
5.02
6.23
6.61
5.29
1.95
-2.81
-7.64
-10.84
-10.99
-7.62
-1.28
6.68
14.68
21.43
26.34
29.31
30.58
30.53
29.47
27.79
25.99
24.52
23.81
24.06
25.16
26.75
28.30
29.25
29.26
28.29
26.59
24.64
22.95
21.79
21.16
20.82
20.36
19.51
18.14
16.37
14.52
12.87
11.66
10.98
10.68
10.52
10.26
9.70
8.80
7.73
6.61
5.57
4.65
3.75
2.84
1.98
1.18
0.39
-0.73
-2.77
-6.20
-11.01
-16.47
-21.22
-23.83
-23.42
-19.94
-14.25
-7.65
-1.28
4.05
8.08
10.90
12.72
13.79
14.38
14.66
14.76
14.76
14.63
14.43
14.30
14.28
14.33
14.20
13.52
12.04
9.81
7.11
4.47
2.29
0.75
-0.22
-0.93
-1.73
-2.81
-4.24
-5.88
-7.45
-8.71
-9.54
-9.97
-10.17
-10.31
-10.43
-10.56
-10.70
-10.96
-11.64
-12.94
-14.95
-17.50
-20.18
-22.52
-24.25
-25.41
-26.56
-28.54
-32.12
-37.51
-44.02
-50.11
-54.00
-54.31
-50.69
-44.03
-35.95
-28.18
-22.06
-18.12
-16.24
-15.86
-16.29
-16.83
-17.01
-16.61
-15.62
-14.22
-12.53
-10.59
-8.40
-6.07
-3.92
-2.42
-1.92
-2.43
-3.53
-4.56
-5.03
-4.83
-4.23
-3.78
-3.85
-4.48
-5.41
-6.20
-6.40
-5.89
-4.75
-3.24
-1.66
-0.12
1.49
3.40
5.72
8.39
10.97
12.95
13.91
13.73
12.67
11.12
9.46
7.94
6.65
5.68
5.19
5.22
5.50
5.41
4.13
1.23
-2.91
-7.13
-9.81
-9.69
-6.51
-1.03
5.38
11.37
16.27
20.09
23.19
25.93
28.30
30.02
30.79
30.59
29.69
28.65
27.93
27.75
28.10
28.61
28.85
28.50
27.51
26.12
24.83
24.06
23.99
24.46
24.96
24.99
24.24
22.70
20.63
18.40
16.25
14.33
12.69
11.42
10.68
10.62
11.11
11.78
11.97
11.11
8.97
5.83
2.40
-0.49
-2.33
-3.05
-2.98
-2.63
-2.42
-2.63
-3.52
-5.38
-8.35
-12.23
-16.23
-19.10
-19.62
-17.10
-11.78
-4.70
2.79
9.45
14.61
18.14
20.15
20.83
20.36
18.89
16.69
14.16
11.67
9.57
8.09
7.20
6.75
6.40
5.65
4.07
1.46
-1.97
-5.61
-8.66
-10.45
-10.75
-9.86
-8.50
-7.44
-7.31
-8.33
-10.26
-12.61
-14.81
-16.33
-16.98
-16.77
-15.90
-14.81
-13.97
-13.79
-14.61
-16.53
-19.41
-22.93
-26.68
-30.19
-33.08
-35.03
-35.90
-35.89
-35.55
-35.68
-37.00
-39.68
-43.17
-46.27
-47.64
-46.45
-42.62
-36.83
-30.18
-23.74
-18.16
-13.83
-10.84
-9.09
-8.39
-8.37
-8.55
-8.57
-8.19
-7.27
-5.80
-3.66
-0.78
2.73
6.49
9.93
12.52
14.08
14.80
15.10
15.33
15.54
15.48
14.85
13.52
11.70
9.86
8.37
7.43
6.95
6.66
6.41
6.34
6.71
7.81
9.68
11.92
13.91
15.02
14.82
13.36
11.09
8.67
6.75
5.71
5.57
6.09
6.76
6.98
6.20
4.03
0.42
-4.19
-9.01
-12.94
-14.94
-14.33
-10.87
-4.92
2.69
10.87
18.46
24.46
28.29
29.83
29.44
27.88
25.99
24.54
24.06
24.79
26.61
29.15
31.77
33.71
34.37
33.38
30.87
27.35
23.42
19.61
16.25
13.42
11.14
9.44
8.31
7.64
7.22
6.70
5.85
4.62
3.17
1.93
1.37
1.88
3.59
6.19
8.99
11.17
11.99
11.18
9.08
6.36
3.75
1.77
0.43
-0.60
-1.79
-3.66
-6.54
-10.52
-15.36
-20.44
-24.84
-27.60
-27.99
-25.83
-21.56
-16.10
-10.59
-6.01
-2.88
-1.30
-0.90
-1.08
-1.30
-1.26
-0.94
-0.64
-0.63
-0.93
-1.40
-1.79
-2.05
-2.48
-3.56
-5.60
-8.54
-11.80
-14.53
-16.14
-16.42
-15.82
-15.14
-15.03
-15.76
-17.11
-18.51
-19.47
-19.78
-19.52
-19.02
-18.49
-17.92
-17.24
-16.36
-15.45
-14.92
-15.19
-16.42
-18.47
-20.91
-23.22
-25.07
-26.26
-26.73
-26.59
-26.15
-25.90
-26.44
-28.08
-30.52
-32.79
-33.44
-31.28
-25.95
-18.08
-9.18
-0.89
5.62
9.99
12.53
13.95
14.82
15.50
16.17
16.85
17.67
18.81
20.39
22.37
24.50
26.24
27.03
26.52
24.69
22.01
19.13
16.70
15.06
14.11
13.44
12.59
11.29
9.59
7.87
6.58
6.04
6.38
7.37
8.61
9.65
10.14
10.00
9.47
8.94
8.87
9.53
10.87
12.65
14.53
16.19
17.45
18.23
18.43
18.03
17.01
15.51
13.85
12.25
10.74
9.13
7.08
4.48
1.71
-0.51
-1.32
-0.17
2.91
7.32
12.13
16.34
19.25
20.54
20.23
18.68
16.43
14.01
11.92
10.45
9.69
9.64
10.14
10.94
11.71
12.04
11.57
10.19
8.02
5.50
3.23
1.62
0.87
0.87
1.28
1.73
1.98
1.91
1.47
0.68
-0.45
-1.83
-3.18
-4.13
-4.30
-3.52
-2.03
-0.35
0.87
1.17
0.56
-0.62
-1.91
-2.97
-3.83
-4.65
-5.65
-6.93
-8.54
-10.58
-13.36
-17.17
-21.99
-27.32
-32.11
-35.11
-35.44
-32.83
-27.78
-21.35
-14.74
-9.03
-4.90
-2.58
-1.83
-2.11
-2.74
-3.17
-3.18
-2.82
-2.36
-2.04
-1.86
-1.80
-1.92
-2.42
-3.72
-6.08
-9.40
-13.21
-16.75
-19.34
-20.63
-20.73
-20.03
-19.06
-18.23
-17.71
-17.50
-17.45
-17.41
-17.32
-17.18
-17.02
-16.83
-16.46
-15.68
-14.31
-12.38
-10.23
-8.34
-7.12
-6.69
-6.88
-7.26
-7.47
-7.32
-6.81
-6.09
-5.37
-4.91
-5.09
-6.22
-8.37
-11.15
-13.65
-14.68
-13.35
-9.39
-3.40
3.43
9.85
14.89
18.16
19.76
20.01
19.39
18.37
17.32
16.55
16.24
16.38
16.95
17.88
19.09
20.49
21.90
23.03
23.64
23.62
23.03
22.12
21.09
19.93
18.52
16.66
14.34
11.87
9.68
8.20
7.58
7.62
7.92
8.06
7.82
7.29
6.75
6.43
6.45
6.72
6.95
6.93
6.46
5.43
3.85
1.78
-0.61
-3.15
-5.72
-8.54
-12.07
-16.95
-23.49
-31.25
-39.02
-45.01
-47.38
-44.94
-37.41
-25.53
-10.79
4.93
19.77
32.12
40.91
45.80
47.08
45.59
42.34
38.16
33.65
29.32
25.57
22.83
21.34
20.95
21.17
21.26
20.56
18.78
16.05
12.87
9.97
7.91
7.03
7.32
8.41
9.66
10.43
10.26
9.03
7.05
4.74
2.58
0.77
-0.83
-2.52
-4.62
-7.29
-10.37
-13.47
-16.22
-18.33
-19.80
-20.80
-21.48
-22.06
-22.79
-24.02
-26.25
-29.81
-34.47
-39.36
-43.01
-43.92
-41.23
-35.05
-26.41
-16.97
-8.30
-1.56
2.66
4.35
4.01
2.39
0.42
-1.13
-1.87
-1.83
-1.35
-0.84
-0.51
-0.39
-0.53
-1.07
-2.30
-4.39
-7.14
-9.91
-11.93
-12.52
-11.68
-9.94
-8.13
-7.04
-6.90
-7.42
-7.99
-7.96
-6.93
-4.93
-2.23
0.82
3.87
6.67
9.01
10.64
11.29
10.74
8.89
5.91
2.17
-1.78
-5.31
-7.90
-9.29
-9.58
-9.31
-9.34
-10.44
-13.06
-16.94
-21.09
-24.22
-25.17
-23.34
-18.92
-12.66
-5.61
1.16
6.90
11.14
13.76
14.93
15.07
14.72
14.38
14.33
14.61
15.16
15.81
16.42
16.92
17.19
17.19
16.95
16.49
15.98
15.56
15.30
15.16
15.11
15.04
14.88
14.54
13.86
12.79
11.36
9.78
8.43
7.67
7.62
8.19
9.07
9.90
10.47
10.71
10.67
10.46
10.11
9.57
8.79
7.69
6.30
4.74
3.05
1.10
-1.43
-4.95
-9.56
-14.80
-19.74
-23.12
-23.95
-21.87
-17.28
-11.18
-4.75
1.06
5.72
9.14
11.52
13.10
14.07
14.55
14.54
14.10
13.46
12.87
12.70
13.07
13.77
14.30
14.11
12.84
10.56
7.71
4.87
2.53
0.95
0.09
-0.20
-0.15
-0.00
0.06
-0.12
-0.66
-1.55
-2.68
-3.84
-4.72
-5.10
-4.83
-3.95
-2.71
-1.52
-0.77
-0.89
-2.10
-4.35
-7.43
-10.85
-14.03
-16.49
-18.02
-18.89
-19.80
-21.52
-24.42
-28.21
-31.81
-33.84
-33.26
-29.81
-24.23
-17.91
-12.27
-8.26
-6.07
-5.17
-4.83
-4.42
-3.66
-2.76
-2.04
-1.68
-1.67
-1.64
-1.24
-0.43
0.47
0.88
0.27
-1.45
-3.89
-6.34
-8.10
-8.83
-8.61
-7.81
-6.83
-6.00
-5.39
-5.01
-4.71
-4.29
-3.56
-2.45
-0.99
0.53
1.83
2.77
3.36
3.81
4.30
4.74
4.87
4.39
3.14
1.37
-0.40
-1.70
-2.35
-2.57
-2.90
-3.78
-5.41
-7.75
-10.67
-14.16
-18.32
-23.04
-27.80
-31.63
-33.31
-31.95
-27.38
-20.26
-11.97
-3.98
2.59
7.21
10.02
11.57
12.52
13.44
14.71
16.31
18.10
19.80
21.23
22.36
23.30
24.09
24.60
24.53
23.60
21.78
19.40
17.06
15.40
14.69
14.83
15.42
15.91
16.02
15.69
15.04
14.26
13.54
12.97
12.64
12.66
13.07
13.84
14.81
15.70
16.24
16.22
15.52
14.23
12.45
10.41
8.30
6.28
4.42
2.75
1.16
-0.38
-1.81
-3.14
-4.43
-5.96
-8.19
-11.46
-15.69
-20.22
-23.92
-25.57
-24.49
-20.72
-15.08
-8.84
-3.23
0.96
3.54
4.84
5.42
5.82
6.36
7.04
7.64
7.95
7.86
7.56
7.44
7.79
8.64
9.69
10.34
10.05
8.73
6.65
4.54
3.21
3.12
4.23
5.93
7.32
7.71
6.91
5.28
3.64
2.72
2.89
3.97
5.40
6.54
7.01
6.80
6.17
5.52
5.10
4.90
4.76
4.33
3.39
1.94
0.16
-1.61
-3.07
-4.18
-5.08
-5.96
-6.98
-8.12
-9.39
-10.91
-12.92
-15.58
-18.74
-21.75
-23.68
-23.65
-21.27
-16.84
-11.17
-5.31
-0.19
3.61
5.97
6.97
6.97
6.45
5.81
5.31
5.04
4.85
4.62
4.36
4.24
4.45
5.03
5.70
6.09
5.83
4.88
3.59
2.47
1.95
2.13
2.70
3.14
3.03
2.19
0.80
-0.73
-2.06
-3.00
-3.50
-3.71
-3.71
-3.52
-3.17
-2.71
-2.27
-2.03
-2.14
-2.69
-3.74
-5.29
-7.30
-9.64
-11.96
-13.95
-15.31
-15.95
-16.05
-15.95
-16.01
-16.64
-18.21
-20.98
-25.08
-30.17
-35.37
-39.46
-41.21
-39.94
-35.88
-29.96
-23.48
-17.63
-13.12
-10.12
-8.39
-7.47
-6.83
-6.06
-4.82
-3.06
-0.95
1.27
3.30
4.96
6.22
7.04
7.37
7.19
6.56
5.77
5.29
5.45
6.34
7.69
8.95
9.64
9.54
8.75
7.64
6.64
5.98
5.68
5.59
5.49
5.26
4.89
4.45
4.09
3.88
3.81
3.87
3.95
3.97
3.87
3.58
3.15
2.63
2.04
1.43
0.87
0.37
-0.14
-0.81
-2.02
-4.11
-7.23
-11.18
-15.30
-18.63
-20.23
-19.38
-15.86
-10.04
-2.75
4.86
11.63
16.67
19.59
20.58
20.32
19.58
19.02
18.98
19.42
20.24
21.29
22.42
23.44
24.07
23.94
22.91
21.17
19.14
17.40
16.38
16.13
16.41
16.84
16.99
16.64
15.69
14.20
12.39
10.51
8.85
7.66
6.97
6.68
6.58
6.42
6.01
5.30
4.25
2.88
1.29
-0.40
-2.00
-3.27
-4.16
-4.85
-5.73
-7.35
-10.00
-13.51
-17.22
-20.10
-21.20
-19.98
-16.45
-11.17
-5.01
1.12
6.51
10.70
13.58
15.30
16.18
16.65
16.95
17.18
17.31
17.22
16.94
16.63
16.46
16.47
16.48
16.05
14.83
12.68
9.78
6.72
4.19
2.77
2.72
3.89
5.77
7.71
9.05
9.40
8.76
7.42
5.84
4.51
3.70
3.52
3.92
4.68
5.50
6.05
5.95
5.04
3.40
1.36
-0.52
-1.74
-2.07
-1.66
-1.00
-0.86
-1.96
-4.83
-9.56
-15.70
-22.37
-28.43
-32.86
-35.07
-35.05
-33.21
-30.25
-26.89
-23.61
-20.69
-18.24
-16.11
-14.18
-12.26
-10.24
-8.21
-6.32
-4.71
-3.43
-2.27
-1.00
0.52
2.19
3.66
4.48
4.43
3.49
1.99
0.40
-0.87
-1.57
-1.72
-1.62
-1.67
-2.17
-3.24
-4.67
-6.01
-6.96
-7.39
-7.48
-7.59
-7.97
-8.62
-9.31
-9.78
-9.96
-10.13
-10.72
-12.12
-14.41
-17.26
-20.09
-22.35
-23.69
-24.18
-24.12
-23.88
-23.81
-24.03
-24.51
-25.23
-26.19
-27.39
-28.73
-29.80
-29.87
-28.21
-24.26
-18.03
-10.27
-2.26
4.59
9.21
11.38
11.65
11.18
11.15
12.34
14.86
18.23
21.66
24.46
26.34
27.29
27.48
27.04
25.91
23.99
21.39
18.41
15.59
13.44
12.19
11.73
11.74
11.78
11.60
11.12
10.40
9.53
8.60
7.66
6.78
6.08
5.69
5.77
6.48
7.86
9.83
12.03
13.94
15.03
14.93
13.69
11.82
10.00
8.79
8.40
8.61
8.94
8.91
8.12
6.39
3.64
-0.06
-4.38
-8.67
-11.99
-13.38
-12.21
-8.45
-2.60
4.35
11.28
17.19
21.36
23.49
23.74
22.63
20.93
19.36
18.29
17.75
17.47
17.12
16.57
15.86
15.05
14.13
12.94
11.28
9.17
6.81
4.56
2.80
1.60
0.87
0.32
-0.32
-1.18
-2.21
-3.32
-4.40
-5.33
-6.10
-6.59
-6.71
-6.43
-5.86
-5.22
-4.85
-4.98
-5.63
-6.69
-7.89
-8.99
-9.80
-10.18
-10.09
-9.67
-9.29
-9.55
-11.07
-14.07
-18.16
-22.34
-25.33
-26.16
-24.44
-20.46
-15.01
-9.01
-3.21
1.70
5.28
7.36
8.02
7.76
7.29
7.18
7.70
8.71
9.81
10.69
11.24
11.52
11.65
11.56
11.00
9.77
7.76
5.17
2.41
-0.06
-1.94
-3.08
-3.60
-3.69
-3.56
-3.43
-3.46
-3.71
-4.15
-4.65
-4.95
-4.87
-4.28
-3.26
-2.13
-1.28
-1.14
-1.97
-3.76
-6.25
-9.03
-11.52
-13.29
-14.08
-13.88
-13.19
-12.81
-13.66
-16.43
-21.11
-26.79
-31.96
-34.96
-34.72
-31.26
-25.56
-19.22
-13.77
-10.18
-8.65
-8.80
-9.92
-11.32
-12.56
-13.41
-13.90
-14.04
-13.76
-12.87
-11.19
-8.64
-5.55
-2.60
-0.51
0.16
-0.61
-2.30
-4.18
-5.59
-6.26
-6.33
-6.07
-5.69
-5.17
-4.35
-3.11
-1.48
0.29
1.88
3.06
3.87
4.52
5.30
6.47
7.93
9.34
10.32
10.49
9.82
8.54
6.99
5.42
3.97
2.56
1.14
-0.31
-1.86
-3.60
-5.67
-8.14
-10.77
-12.90
-13.68
-12.34
-8.65
-3.16
3.04
8.61
12.52
14.38
14.45
13.42
12.16
11.26
10.99
11.31
11.94
12.60
13.11
13.38
13.42
13.23
12.76
12.03
11.12
10.21
9.59
9.51
10.10
11.35
13.01
14.71
16.06
16.71
16.48
15.46
13.86
12.05
10.44
9.32
8.86
9.08
9.88
11.08
12.49
13.82
14.77
15.03
14.40
12.88
10.80
8.60
6.70
5.21
3.81
2.00
-0.59
-3.88
-7.21
-9.66
-10.50
-9.48
-6.97
-3.67
-0.35
2.40
4.24
5.09
5.00
4.20
3.06
1.98
1.31
1.23
1.67
2.46
3.39
4.24
4.86
5.07
4.73
3.78
2.32
0.63
-0.91
-1.97
-2.35
-2.00
-1.13
-0.09
0.76
1.11
0.88
0.32
-0.17
-0.16
0.56
1.82
3.19
4.22
4.56
4.19
3.26
1.96
0.45
-1.22
-2.95
-4.60
-6.03
-7.24
-8.49
-10.25
-12.91
-16.47
-20.43
-23.88
-25.88
-25.90
-23.92
-20.44
-16.22
-12.07
-8.62
-6.31
-5.29
-5.39
-6.15
-6.94
-7.15
-6.48
-4.85
-2.41
0.64
4.15
7.90
11.41
14.05
15.12
14.29
11.77
8.24
4.61
1.60
-0.59
-2.14
-3.39
-4.74
-6.36
-8.29
-10.60
-13.30
-16.31
-19.41
-22.17
-24.04
-24.68
-24.07
-22.58
-20.91
-19.69
-19.37
-20.03
-21.32
-22.75
-23.84
-24.26
-23.94
-23.01
-21.74
-20.57
-19.98
-20.32
-21.67
-23.57
-25.05
-24.99
-22.47
-17.28
-10.10
-2.22
4.93
10.25
13.37
14.57
14.54
14.07
13.77
13.94
14.61
15.57
16.56
17.43
18.17
18.83
19.46
19.91
19.88
19.22
17.98
16.61
15.70
15.62
16.34
17.38
17.96
17.47
15.75
13.00
9.78
6.61
3.83
1.60
-0.07
-1.15
-1.54
-1.19
-0.14
1.35
2.84
3.81
3.93
3.12
1.63
-0.04
-1.39
-2.09
-2.01
-1.32
-0.37
0.35
0.35
-0.64
-2.55
-4.95
-7.12
-8.32
-8.05
-6.13
-2.75
1.56
6.19
10.46
13.81
15.96
16.92
16.98
16.67
16.39
16.38
16.68
17.13
17.60
18.06
18.43
18.62
18.46
17.71
16.28
14.32
12.11
9.99
8.24
6.88
5.80
4.76
3.50
1.90
-0.02
-2.12
-4.03
-5.40
-5.93
-5.49
-4.22
-2.51
-0.82
0.34
0.62
0.00
-1.35
-3.04
-4.57
-5.58
-5.87
-5.46
-4.72
-4.16
-4.35
-5.74
-8.32
-11.57
-14.59
-16.35
-16.11
-13.71
-9.57
-4.47
0.65
5.06
8.32
10.26
11.02
10.87
10.19
9.40
8.80
8.49
8.50
8.78
9.36
10.31
11.50
12.58
12.99
12.15
9.84
6.39
2.56
-0.73
-2.82
-3.57
-3.31
-2.62
-2.01
-1.67
-1.50
-1.24
-0.71
0.05
0.79
1.26
1.32
1.13
0.99
1.08
1.34
1.47
1.07
0.01
-1.44
-2.76
-3.40
-3.17
-2.25
-1.17
-0.54
-0.92
-2.68
-6.00
-10.67
-15.99
-20.85
-23.88
-23.99
-20.90
-15.23
-8.34
-1.80
3.14
5.96
6.73
6.01
4.50
2.78
1.32
0.41
0.14
0.41
1.07
1.83
2.46
2.65
2.12
0.66
-1.70
-4.62
-7.49
-9.71
-10.91
-11.07
-10.58
-9.94
-9.48
-9.34
-9.38
-9.39
-9.28
-9.14
-9.13
-9.43
-10.09
-11.01
-12.05
-12.95
-13.54
-13.81
-13.85
-13.88
-14.17
-14.89
-16.11
-17.75
-19.55
-21.29
-22.72
-23.63
-23.95
-23.79
-23.42
-23.36
-24.06
-25.67
-27.86
-29.75
-30.18
-28.29
-23.85
-17.39
-10.19
-3.63
1.16
3.72
4.33
3.80
3.11
3.11
4.17
6.16
8.60
10.83
12.43
13.32
13.68
13.79
13.87
13.89
13.79
13.54
13.18
12.81
12.45
11.90
10.93
9.40
7.40
5.32
3.66
2.76
2.74
3.33
4.11
4.77
5.16
5.42
5.80
6.39
7.10
7.66
7.74
7.19
6.09
4.64
3.08
1.62
0.34
-0.68
-1.34
-1.72
-2.07
-2.89
-4.72
-7.73
-11.51
-15.14
-17.38
-17.28
-14.56
-9.61
-3.42
2.87
8.39
12.58
15.29
16.68
16.97
16.49
15.56
14.50
13.61
13.24
13.53
14.50
15.91
17.25
17.92
17.49
15.90
13.58
11.25
9.59
8.96
9.25
9.93
10.44
10.34
9.52
8.21
6.75
5.48
4.68
4.39
4.55
5.08
5.71
6.23
6.46
6.23
5.53
4.39
2.96
1.49
0.32
-0.36
-0.53
-0.60
-1.22
-2.93
-5.80
-9.22
-12.10
-13.36
-12.41
-9.34
-4.95
-0.28
3.87
7.02
9.07
10.15
10.42
10.12
9.57
9.09
8.97
9.30
9.87
10.38
10.57
10.25
9.52
8.54
7.48
6.47
5.56
4.68
3.84
3.05
2.33
1.75
1.27
0.79
0.24
-0.46
-1.22
-1.83
-2.13
-2.04
-1.67
-1.27
-1.11
-1.35
-2.00
-2.95
-4.01
-5.02
-5.81
-6.28
-6.54
-6.89
-7.81
-9.80
-12.95
-16.81
-20.35
-22.35
-21.98
-19.15
-14.44
-8.93
-3.61
0.88
4.24
6.48
7.75
8.18
8.02
7.58
7.18
7.04
7.29
7.90
8.78
9.80
10.77
11.48
11.67
11.15
9.92
8.22
6.45
5.07
4.36
4.39
4.99
5.77
6.36
6.49
6.03
5.06
3.73
2.22
0.79
-0.31
-0.88
-0.81
-0.23
0.50
0.91
0.64
-0.37
-1.80
-3.18
-4.10
-4.35
-4.10
-3.67
-3.50
-4.07
-5.78
-8.78
-12.85
-17.22
-20.69
-22.15
-20.91
-17.11
-11.61
-5.59
-0.17
3.96
6.62
7.97
8.33
8.15
7.88
7.92
8.52
9.64
10.98
12.21
13.02
13.28
13.06
12.36
11.24
9.72
7.86
5.90
4.08
2.58
1.43
0.46
-0.52
-1.61
-2.68
-3.51
-3.86
-3.70
-3.16
-2.50
-2.04
-1.96
-2.24
-2.74
-3.26
-3.66
-3.97
-4.36
-4.99
-6.03
-7.45
-9.09
-10.83
-12.57
-14.31
-16.12
-18.02
-20.07
-22.34
-24.98
-28.10
-31.57
-34.86
-37.19
-37.75
-36.08
-32.37
-27.33
-21.96
-17.19
-13.59
-11.28
-10.07
-9.62
-9.46
-9.24
-8.66
-7.60
-6.10
-4.29
-2.30
-0.33
1.45
2.86
3.68
3.88
3.56
2.95
2.36
1.94
1.71
1.62
1.64
1.82
2.26
2.89
3.58
4.12
4.39
4.51
4.75
5.33
6.29
7.43
8.40
8.94
8.96
8.54
7.89
7.09
6.14
4.97
3.56
2.02
0.62
-0.44
-1.16
-1.83
-3.06
-5.32
-8.59
-12.26
-15.19
-16.14
-14.43
-10.20
-4.36
1.74
6.88
10.38
12.19
12.69
12.48
12.03
11.67
11.52
11.56
11.74
11.98
12.25
12.56
12.84
12.96
12.75
12.11
11.13
10.12
9.39
9.15
9.40
9.86
10.23
10.28
9.94
9.25
8.24
6.90
5.19
3.17
1.06
-0.78
-1.98
-2.32
-1.73
-0.45
1.23
2.93
4.30
5.19
5.68
5.93
6.15
6.37
6.27
5.45
3.64
1.00
-1.81
-3.86
-4.36
-2.96
0.06
3.94
7.87
11.19
13.58
15.04
15.73
15.88
15.75
15.53
15.42
15.53
15.78
16.03
16.08
15.71
14.87
13.65
12.20
10.72
9.38
8.16
6.99
5.81
4.60
3.54
2.74
2.27
2.01
1.71
1.09
0.10
-1.11
-2.18
-2.74
-2.62
-1.95
-1.05
-0.32
-0.05
-0.43
-1.65
-3.92
-7.42
-12.14
-17.53
-22.54
-25.95
-26.73
-24.60
-20.06
-14.19
-8.15
-2.83
1.49
4.84
7.43
9.41
10.79
11.54
11.71
11.47
11.06
10.83
10.98
11.55
12.31
12.80
12.50
11.03
8.43
5.20
2.11
-0.08
-0.94
-0.55
0.55
1.66
2.11
1.61
0.29
-1.43
-2.89
-3.58
-3.29
-2.24
-0.95
-0.17
-0.43
-1.90
-4.34
-7.22
-10.00
-12.39
-14.32
-15.92
-17.43
-19.16
-21.57
-25.10
-29.76
-34.77
-38.40
-38.40
-32.96
-21.61
-5.87
11.14
25.82
35.46
39.15
37.91
33.99
29.69
26.48
24.63
23.35
21.49
18.16
13.23
7.30
1.46
-3.33
-6.58
-8.45
-9.48
-10.20
-10.96
-11.80
-12.62
-13.55
-14.92
-17.20
-20.75
-25.49
-30.77
-35.63
-39.05
-40.39
-39.70
-37.58
-34.99
-32.87
-31.66
-31.27
-31.16
-30.68
-29.36
-27.22
-24.53
-21.72
-19.10
-16.68
-14.38
-12.03
-9.55
-7.07
-4.85
-3.22
-2.66
-3.57
-6.11
-10.04
-14.55
-18.30
-19.93
-18.43
-13.59
-6.11
2.71
11.39
18.75
24.18
27.61
29.31
29.76
29.38
28.59
27.73
27.02
26.58
26.40
26.36
26.27
25.94
25.22
24.10
22.68
21.09
19.49
18.00
16.66
15.53
14.61
13.88
13.29
12.74
12.15
11.50
10.76
9.93
8.92
7.52
5.53
2.94
-0.05
-2.96
-5.23
-6.45
-6.49
-5.48
-3.69
-1.43
0.96
3.15
4.81
5.70
5.73
5.10
4.03
2.72
1.26
-0.40
-2.14
-3.51
-3.89
-2.66
0.45
5.02
10.14
14.69
17.80
19.18
19.12
18.25
17.21
16.44
16.03
15.93
15.99
16.13
16.32
16.47
16.38
15.75
14.29
11.89
8.82
5.56
2.77
0.96
0.30
0.58
1.34
2.05
2.33
2.09
1.43
0.59
-0.23
-1.00
-1.69
-2.29
-2.67
-2.60
-1.91
-0.71
0.62
1.44
1.21
-0.24
-2.59
-5.16
-7.18
-8.19
-8.11
-7.21
-6.01
-5.03
-4.75
-5.62
-7.90
-11.46
-15.68
-19.45
-21.56
-21.19
-18.20
-13.24
-7.46
-1.93
2.55
5.67
7.51
8.30
8.39
8.16
7.92
7.92
8.21
8.67
9.17
9.59
9.88
9.94
9.63
8.67
6.92
4.48
1.66
-1.02
-3.17
-4.62
-5.37
-5.63
-5.60
-5.42
-5.21
-5.05
-4.91
-4.77
-4.56
-4.21
-3.75
-3.21
-2.61
-1.92
-1.06
-0.03
0.97
1.57
1.32
-0.11
-2.66
-5.88
-9.12
-11.74
-13.40
-14.12
-14.23
-14.14
-14.23
-14.77
-16.05
-18.34
-21.71
-25.98
-30.50
-34.22
-36.15
-35.65
-32.74
-28.14
-22.88
-18.00
-14.25
-11.91
-10.92
-10.93
-11.43
-11.94
-12.11
-11.74
-10.81
-9.40
-7.54
-5.35
-2.96
-0.64
1.21
2.25
2.37
1.68
0.64
-0.22
-0.58
-0.37
0.19
0.72
1.00
0.99
0.94
1.17
1.94
3.21
4.72
6.05
6.94
7.39
7.64
7.94
8.42
8.83
8.79
7.98
6.30
4.01
1.57
-0.60
-2.25
-3.31
-3.88
-4.12
-4.26
-4.68
-5.73
-7.67
-10.43
-13.40
-15.63
-16.22
-14.62
-10.98
-6.00
-0.59
4.40
8.41
11.23
12.84
13.41
13.26
12.74
12.28
12.18
12.47
13.04
13.70
14.33
14.95
15.61
16.19
16.49
16.20
15.24
13.84
12.45
11.51
11.32
11.74
12.41
12.88
12.83
12.13
10.87
9.16
7.25
5.47
4.11
3.51
3.85
5.01
6.66
8.31
9.50
10.00
9.85
9.21
8.39
7.59
6.92
6.40
5.92
5.20
3.99
2.08
-0.46
-3.18
-5.40
-6.45
-5.91
-3.82
-0.59
3.24
7.08
10.57
13.44
15.44
16.34
16.06
14.70
12.64
10.46
8.71
7.81
7.83
8.48
9.25
9.55
8.99
7.52
5.43
3.26
1.59
0.78
0.92
1.81
3.06
4.26
4.97
4.89
3.92
2.23
0.24
-1.50
-2.54
-2.79
-2.45
-2.00
-1.88
-2.32
-3.27
-4.54
-5.84
-6.97
-7.85
-8.50
-9.15
-10.12
-11.76
-14.27
-17.43
-20.62
-23.12
-24.32
-24.06
-22.67
-20.67
-18.56
-16.63
-14.86
-13.10
-11.13
-8.76
-5.88
-2.57
0.98
4.34
7.09
9.01
10.12
10.64
10.90
11.01
10.91
10.56
9.95
9.28
8.77
8.47
8.21
7.66
6.51
4.73
2.60
0.58
-0.85
-1.40
-1.12
-0.17
1.18
2.76
4.57
6.54
8.50
10.10
10.83
10.33
8.56
5.75
2.37
-1.09
-4.35
-7.30
-9.88
-12.15
-14.25
-16.47
-19.28
-22.95
-27.30
-31.60
-34.59
-35.08
-32.43
-26.79
-19.15
-10.97
-3.69
1.66
4.61
5.36
4.59
3.18
2.03
1.67
2.15
3.23
4.49
5.67
6.75
7.74
8.53
8.78
8.11
6.33
3.72
0.91
-1.34
-2.56
-2.85
-2.69
-2.78
-3.59
-5.12
-6.99
-8.58
-9.39
-9.22
-8.31
-7.11
-6.12
-5.68
-5.77
-6.16
-6.54
-6.69
-6.63
-6.60
-6.90
-7.78
-9.21
-10.94
-12.56
-13.68
-14.13
-13.90
-13.12
-11.98
-10.66
-9.38
-8.56
-8.69
-10.10
-12.74
-15.97
-18.64
-19.63
-18.21
-14.40
-8.96
-3.10
2.01
5.47
6.97
6.74
5.47
4.09
3.45
4.03
5.83
8.42
11.20
13.70
15.66
16.99
17.62
17.43
16.35
14.53
12.32
10.22
8.62
7.61
6.99
6.43
5.60
4.45
3.21
2.24
1.92
2.47
3.81
5.62
7.43
8.83
9.72
10.28
10.86
11.72
12.82
13.79
14.11
13.37
11.52
8.94
6.12
3.57
1.52
-0.05
-1.27
-2.24
-3.02
-3.63
-4.26
-5.20
-6.70
-8.74
-10.86
-12.11
-11.55
-8.52
-3.15
3.64
10.47
16.07
19.71
21.44
21.87
21.73
21.54
21.41
21.17
20.65
19.87
18.99
18.22
17.61
17.01
16.19
14.99
13.41
11.65
9.96
8.51
7.44
6.70
6.22
5.88
5.53
5.03
4.32
3.35
2.16
0.83
-0.55
-1.79
-2.70
-3.05
-2.74
-1.85
-0.76
0.04
0.07
-0.87
-2.56
-4.50
-6.13
-7.05
-7.25
-6.99
-6.65
-6.64
-7.24
-8.60
-10.74
-13.41
-16.14
-18.25
-19.04
-17.97
-14.93
-10.24
-4.66
0.88
5.59
8.96
10.88
11.60
11.52
11.05
10.53
10.11
9.84
9.80
9.94
10.20
10.42
10.33
9.71
8.54
6.96
5.28
3.77
2.51
1.42
0.30
-0.99
-2.41
-3.89
-5.29
-6.53
-7.64
-8.67
-9.59
-10.36
-10.83
-10.80
-10.10
-8.66
-6.63
-4.42
-2.56
-1.55
-1.63
-2.66
-4.14
-5.60
-6.76
-7.66
-8.54
-9.61
-10.96
-12.61
-14.59
-17.06
-20.02
-23.15
-25.78
-27.06
-26.37
-23.70
-19.63
-15.02
-10.68
-7.09
-4.37
-2.62
-1.93
-2.29
-3.49
-4.94
-5.90
-5.85
-4.72
-2.91
-1.10
0.22
0.81
0.75
0.23
-0.60
-1.65
-2.77
-3.79
-4.48
-4.67
-4.47
-4.16
-4.02
-4.27
-4.83
-5.47
-5.90
-5.94
-5.58
-5.01
-4.40
-3.86
-3.39
-2.90
-2.34
-1.77
-1.34
-1.28
-1.78
-2.86
-4.37
-6.05
-7.53
-8.59
-9.17
-9.40
-9.66
-10.39
-11.93
-14.38
-17.37
-20.13
-21.74
-21.43
-18.89
-14.40
-8.70
-2.71
2.72
7.11
10.41
12.89
15.02
17.21
19.59
22.03
24.11
25.41
25.70
24.98
23.52
21.71
19.78
17.84
15.93
14.07
12.49
11.45
11.11
11.44
12.11
12.64
12.61
11.79
10.22
8.28
6.42
5.10
4.63
5.01
5.99
7.18
8.16
8.60
8.42
7.73
6.74
5.68
4.64
3.62
2.69
1.90
1.30
0.84
0.21
-0.89
-2.59
-4.63
-6.30
-6.77
-5.48
-2.37
1.97
6.62
10.74
13.73
15.44
16.07
15.94
15.40
14.75
14.14
13.59
13.10
12.62
12.14
11.66
11.15
10.50
9.57
8.27
6.64
4.96
3.56
2.74
2.60
2.95
3.42
3.59
3.19
2.21
0.78
-0.80
-2.26
-3.41
-4.14
-4.41
-4.26
-3.78
-3.15
-2.67
-2.58
-3.02
-3.85
-4.72
-5.24
-5.12
-4.38
-3.35
-2.59
-2.72
-4.24
-7.29
-11.52
-16.14
-20.12
-22.46
-22.63
-20.72
-17.29
-13.21
-9.25
-5.86
-3.15
-0.97
0.99
2.94
5.03
7.19
9.14
10.54
11.12
10.91
10.26
9.63
9.35
9.45
9.57
9.27
8.30
6.75
5.00
3.53
2.58
2.13
1.95
1.71
1.26
0.64
0.03
-0.36
-0.40
-0.14
0.29
0.70
0.89
0.84
0.54
-0.06
-1.05
-2.62
-4.83
-7.46
-10.14
-12.39
-13.92
-14.92
-15.83
-17.23
-19.58
-22.93
-26.92
-30.91
-34.11
-35.72
-35.28
-32.65
-28.16
-22.51
-16.50
-10.87
-6.16
-2.61
-0.33
0.62
0.32
-1.00
-2.95
-5.02
-6.85
-8.26
-9.25
-9.88
-10.08
-9.66
-8.53
-6.84
-5.03
-3.76
-3.49
-4.33
-5.98
-7.87
-9.44
-10.30
-10.31
-9.44
-7.80
-5.49
-2.77
-0.02
2.35
3.96
4.69
4.73
4.49
4.43
4.81
5.56
6.35
6.78
6.52
5.47
3.82
1.83
-0.14
-1.75
-2.80
-3.27
-3.42
-3.83
-5.07
-7.50
-10.96
-14.60
-17.23
-17.73
-15.54
-10.95
-4.91
1.35
6.74
10.69
13.19
14.49
14.97
14.92
14.47
13.77
13.06
12.66
12.84
13.73
15.16
16.73
17.96
18.51
18.35
17.69
16.87
16.13
15.50
14.83
13.93
12.69
11.12
9.38
7.64
6.01
4.56
3.22
1.93
0.69
-0.44
-1.32
-1.81
-1.91
-1.74
-1.51
-1.51
-1.86
-2.54
-3.35
-4.05
-4.56
-5.12
-6.21
-8.39
-11.92
-16.56
-21.54
-25.78
-28.21
-28.19
-25.63
-20.92
-14.87
-8.35
-2.16
3.09
7.09
9.89
11.77
13.18
14.57
16.11
17.80
19.44
20.81
21.73
22.13
21.91
21.04
19.62
17.95
16.51
15.78
16.00
17.06
18.42
19.43
19.60
18.77
17.22
15.51
14.19
13.64
14.00
15.10
16.56
18.00
18.98
19.26
18.74
17.45
15.61
13.51
11.46
9.69
8.10
6.30
3.75
0.04
-4.71
-9.72
-13.82
-15.82
-15.07
-11.76
-6.80
-1.44
3.16
6.31
7.91
8.27
7.99
7.65
7.66
8.18
9.09
10.11
10.96
11.44
11.42
10.88
9.71
7.81
5.19
2.07
-1.04
-3.51
-4.88
-5.04
-4.33
-3.38
-2.82
-2.89
-3.56
-4.42
-5.05
-5.28
-5.15
-4.89
-4.73
-4.68
-4.64
-4.50
-4.21
-3.89
-3.71
-3.75
-4.10
-4.82
-6.06
-8.03
-10.72
-13.71
-16.22
-17.34
-16.46
-13.69
-9.72
-5.57
-2.13
0.24
1.71
2.64
3.40
4.15
4.85
5.56
6.32
7.20
8.18
9.09
9.73
10.03
9.92
9.40
8.51
7.17
5.38
3.31
1.23
-0.53
-1.73
-2.45
-3.04
-3.90
-5.33
-7.29
-9.43
-11.22
-12.16
-12.02
-10.93
-9.33
-7.81
-6.88
-6.67
-6.92
-7.07
-6.46
-4.79
-2.23
0.63
2.99
4.23
4.15
2.96
1.10
-0.95
-2.97
-4.90
-6.82
-8.90
-11.36
-14.44
-18.30
-22.82
-27.46
-31.31
-33.34
-32.92
-30.01
-25.23
-19.61
-14.10
-9.32
-5.47
-2.46
-0.01
2.10
4.03
5.88
7.52
8.79
9.48
9.50
9.04
8.41
7.89
7.56
7.23
6.56
5.42
3.86
2.19
0.74
-0.35
-1.12
-1.69
-2.21
-2.67
-2.95
-3.00
-2.78
-2.34
-1.84
-1.38
-1.02
-0.80
-0.70
-0.64
-0.60
-0.60
-0.76
-1.32
-2.45
-4.29
-6.84
-9.83
-12.92
-15.67
-17.68
-18.72
-18.77
-18.00
-16.77
-15.55
-14.80
-15.00
-16.45
-19.12
-22.60
-25.98
-28.15
-28.22
-25.83
-21.33
-15.61
-9.74
-4.61
-0.75
1.72
2.93
3.16
2.81
2.29
1.97
2.15
2.87
4.01
5.46
7.06
8.69
10.26
11.53
12.32
12.56
12.31
11.82
11.38
11.14
11.14
11.26
11.38
11.42
11.32
11.04
10.55
9.78
8.71
7.47
6.16
5.01
4.22
3.96
4.26
5.00
5.81
6.25
5.96
4.82
3.03
1.07
-0.57
-1.58
-1.89
-1.64
-1.05
-0.37
0.03
-0.27
-1.75
-4.59
-8.45
-12.44
-15.28
-15.84
-13.61
-8.89
-2.65
3.80
9.31
13.19
15.21
15.60
14.95
13.92
13.20
13.27
14.24
15.89
17.70
19.10
19.72
19.50
18.66
17.59
16.65
15.99
15.62
15.40
15.18
14.87
14.43
13.87
13.26
12.61
11.98
11.44
11.02
10.75
10.59
10.39
10.06
9.52
8.73
7.72
6.54
5.25
3.99
2.89
2.08
1.68
1.65
1.78
1.69
0.84
-1.23
-4.58
-8.82
-13.01
-15.93
-16.57
-14.44
-9.86
-3.85
2.20
7.04
9.83
10.47
9.42
7.48
5.51
4.13
3.60
3.88
4.72
5.85
7.07
8.20
9.07
9.47
9.19
8.09
6.33
4.24
2.34
1.15
0.94
1.67
2.99
4.26
4.89
4.52
3.18
1.33
-0.39
-1.42
-1.54
-0.97
-0.23
0.19
-0.00
-0.80
-1.99
-3.39
-4.80
-6.08
-7.12
-7.88
-8.49
-9.39
-11.13
-14.04
-17.92
-21.88
-24.72
-25.41
-23.61
-19.74
-14.86
-10.05
-6.10
-3.30
-1.53
-0.50
0.08
0.47
0.78
1.13
1.55
2.03
2.54
3.08
3.59
3.98
4.07
3.58
2.35
0.42
-1.99
-4.44
-6.52
-8.01
-8.91
-9.35
-9.60
-9.85
-10.26
-10.91
-11.75
-12.71
-13.60
-14.20
-14.33
-13.95
-13.14
-12.20
-11.47
-11.26
-11.81
-13.13
-15.01
-17.17
-19.21
-20.81
-21.75
-22.01
-21.80
-21.58
-21.85
-22.95
-24.78
-26.73
-27.83
-27.14
-24.11
-18.92
-12.37
-5.55
0.48
5.09
8.20
9.96
10.70
10.73
10.37
9.96
9.89
10.34
11.28
12.37
13.16
13.34
12.89
12.03
11.13
10.43
9.98
9.70
9.45
9.12
8.70
8.14
7.39
6.44
5.34
4.26
3.46
3.08
3.11
3.42
3.76
4.05
4.32
4.62
5.00
5.34
5.48
5.36
5.07
4.80
4.69
4.68
4.54
4.09
3.29
2.28
1.22
0.03
-1.61
-3.96
-7.02
-10.18
-12.41
-12.70
-10.54
-6.21
-0.70
4.78
9.22
12.11
13.54
13.94
13.82
13.63
13.57
13.62
13.69
13.74
13.85
14.21
14.92
15.92
16.87
17.29
16.84
15.56
13.83
12.28
11.41
11.27
11.55
11.65
11.07
9.68
7.77
5.82
4.31
3.42
3.03
2.84
2.56
2.10
1.62
1.25
1.05
0.96
0.75
0.25
-0.57
-1.76
-3.36
-5.49
-8.24
-11.42
-14.53
-16.87
-17.73
-16.79
-14.21
-10.48
-6.27
-2.16
1.51
4.55
6.85
8.47
9.51
10.21
10.82
11.37
11.80
11.95
11.67
11.00
10.15
9.23
8.23
7.02
5.44
3.58
1.80
0.57
0.31
1.07
2.50
4.05
5.14
5.47
5.16
4.58
4.19
4.38
5.18
6.35
7.51
8.17
7.93
6.59
4.08
0.55
-3.63
-8.04
-12.22
-15.81
-18.81
-21.45
-24.03
-26.71
-29.16
-30.75
-30.78
-28.81
-25.01
-20.07
-14.94
-10.50
-7.23
-5.09
-3.72
-2.61
-1.33
0.24
1.97
3.52
4.51
4.74
4.30
3.47
2.64
2.06
1.73
1.52
1.29
0.99
0.71
0.56
0.53
0.53
0.37
-0.14
-1.08
-2.45
-4.14
-5.88
-7.40
-8.36
-8.51
-7.85
-6.58
-5.13
-4.03
-3.70
-4.36
-6.00
-8.40
-11.19
-14.04
-16.69
-18.95
-20.77
-22.17
-23.34
-24.64
-26.46
-29.09
-32.44
-35.86
-38.35
-38.83
-36.66
-32.01
-25.79
-19.30
-13.71
-9.66
-7.06
-5.41
-4.05
-2.47
-0.52
1.75
4.11
6.34
8.35
10.14
11.82
13.48
15.15
16.72
18.03
18.82
18.92
18.31
17.12
15.72
14.51
13.83
13.78
14.21
14.73
14.93
14.55
13.47
11.88
10.06
8.30
6.88
5.95
5.57
5.70
6.18
6.74
7.11
7.06
6.48
5.41
4.01
2.48
1.01
-0.36
-1.78
-3.49
-5.70
-8.38
-11.09
-13.20
-13.96
-12.86
-9.86
-5.33
0.01
5.31
9.90
13.35
15.52
16.53
16.63
16.17
15.55
15.07
14.98
15.41
16.30
17.47
18.60
19.27
19.20
18.29
16.72
14.96
13.52
12.77
12.73
13.11
13.38
13.01
11.74
9.64
7.11
4.70
2.88
1.92
1.77
2.11
2.53
2.69
2.42
1.83
1.11
0.51
0.19
0.09
0.02
-0.32
-1.32
-3.21
-5.95
-9.18
-12.18
-14.10
-14.30
-12.49
-8.90
-4.19
0.84
5.42
9.03
11.42
12.64
12.90
12.56
11.96
11.40
11.08
11.01
11.07
11.07
10.74
9.93
8.63
6.92
5.03
3.18
1.44
-0.13
-1.46
-2.48
-3.01
-2.99
-2.57
-2.15
-2.22
-3.16
-4.89
-7.01
-8.92
-10.08
-10.35
-9.96
-9.33
-8.91
-8.95
-9.44
-10.32
-11.50
-12.93
-14.63
-16.59
-18.80
-21.30
-24.09
-27.04
-29.87
-32.03
-32.91
-32.10
-29.56
-25.69
-21.22
-16.80
-12.95
-9.83
-7.41
-5.60
-4.36
-3.55
-3.05
-2.66
-2.19
-1.59
-0.80
0.23
1.49
2.92
4.33
5.31
5.54
4.93
3.78
2.77
2.59
3.63
5.76
8.37
10.60
11.75
11.37
9.42
6.21
2.21
-1.91
-5.36
-7.58
-8.27
-7.60
-6.30
-5.24
-5.20
-6.48
-8.88
-11.77
-14.56
-16.77
-18.19
-18.81
-18.67
-17.90
-16.83
-15.90
-15.53
-15.88
-16.57
-16.84
-15.85
-13.12
-8.93
-4.16
0.16
3.29
5.13
6.12
6.82
7.62
8.52
9.24
9.55
9.47
9.27
9.37
10.05
11.31
12.82
14.11
14.80
14.80
14.28
13.54
12.91
12.54
12.46
12.56
12.67
12.64
12.39
11.81
10.83
9.48
7.83
6.14
4.79
4.16
4.52
5.91
7.99
10.25
12.06
12.90
12.60
11.32
9.53
7.77
6.39
5.37
4.43
3.13
1.22
-1.13
-3.46
-5.10
-5.43
-4.22
-1.47
2.53
7.30
12.32
17.05
20.92
23.50
24.58
24.20
22.70
20.55
18.20
16.05
14.33
13.09
12.27
11.68
11.04
10.14
8.88
7.37
5.88
4.68
3.96
3.79
4.03
4.46
4.87
4.99
4.66
3.82
2.48
0.77
-1.09
-2.92
-4.56
-5.95
-7.10
-8.03
-8.80
-9.47
-10.05
-10.56
-11.11
-11.82
-12.95
-14.68
-17.03
-19.81
-22.53
-24.54
-25.25
-24.28
-21.56
-17.48
-12.64
-7.80
-3.67
-0.64
1.28
2.36
3.05
3.80
4.79
6.09
7.67
9.52
11.65
13.94
16.02
17.41
17.59
16.35
13.93
10.92
8.05
5.94
4.78
4.47
4.66
4.79
4.35
2.95
0.51
-2.67
-5.91
-8.49
-9.84
-9.89
-9.02
-7.84
-6.93
-6.73
-7.32
-8.70
-10.76
-13.31
-16.09
-18.75
-20.98
-22.77
-24.46
-26.65
-29.89
-34.19
-38.89
-42.81
-44.62
-43.40
-39.10
-32.38
-24.44
-16.51
-9.45
-3.66
0.87
4.40
7.18
9.36
11.03
12.24
13.04
13.56
13.90
14.12
14.21
14.09
13.70
13.08
12.30
11.42
10.41
9.09
7.30
5.00
2.40
-0.06
-1.89
-2.84
-2.96
-2.60
-2.17
-1.89
-1.74
-1.47
-0.82
0.31
1.73
3.05
3.83
3.81
3.11
2.06
1.17
0.80
1.12
1.97
3.02
3.78
3.77
2.72
0.57
-2.32
-5.33
-7.70
-8.71
-7.92
-5.22
-0.84
4.67
10.57
16.08
20.41
23.03
23.78
22.98
21.29
19.54
18.35
18.02
18.50
19.45
20.43
21.07
21.06
20.29
18.86
17.00
15.12
13.62
12.70
12.36
12.34
12.26
11.86
10.98
9.66
8.08
6.40
4.78
3.32
2.04
0.95
0.03
-0.82
-1.73
-2.80
-4.06
-5.39
-6.49
-7.14
-7.27
-7.16
-7.49
-8.89
-11.73
-15.72
-19.94
-23.17
-24.42
-23.33
-20.26
-16.03
-11.44
-7.05
-3.04
0.61
3.84
6.45
8.24
9.12
9.20
8.80
8.28
7.91
7.86
8.05
8.32
8.47
8.28
7.67
6.76
5.82
5.17
5.01
5.33
5.97
6.62
6.99
6.94
6.44
5.62
4.74
4.02
3.60
3.49
3.44
3.17
2.42
1.10
-0.65
-2.54
-4.33
-5.84
-7.08
-8.15
-9.22
-10.53
-12.34
-14.90
-18.31
-22.34
-26.28
-29.19
-30.14
-28.57
-24.63
-19.10
-13.09
-7.70
-3.67
-1.14
0.12
0.64
0.95
1.40
2.11
3.00
3.87
4.57
5.02
5.25
5.33
5.27
4.98
4.39
3.53
2.61
1.96
1.80
2.09
2.61
2.92
2.77
2.20
1.42
0.77
0.40
0.15
-0.25
-1.02
-2.12
-3.21
-3.86
-3.90
-3.52
-3.22
-3.61
-4.97
-7.24
-9.99
-12.68
-14.95
-16.66
-17.86
-18.69
-19.36
-20.06
-21.10
-22.75
-25.03
-27.58
-29.66
-30.29
-28.81
-25.02
-19.40
-12.89
-6.54
-1.15
2.81
5.37
6.82
7.60
8.22
8.95
9.96
11.23
12.62
13.99
15.29
16.41
17.25
17.66
17.50
16.79
15.76
14.74
14.04
13.79
13.83
13.91
13.80
13.39
12.76
12.05
11.30
10.52
9.65
8.67
7.75
7.03
6.62
6.48
6.38
6.07
5.42
4.45
3.32
2.19
1.09
-0.04
-1.26
-2.59
-3.96
-5.29
-6.64
-8.11
-9.79
-11.62
-13.27
-14.24
-14.02
-12.21
-8.79
-4.03
1.52
7.12
12.07
15.88
18.32
19.49
19.76
19.47
18.91
18.19
17.30
16.31
15.30
14.38
13.62
12.94
12.15
11.21
10.17
9.24
8.69
8.64
8.96
9.36
9.52
9.19
8.36
7.16
5.81
4.54
3.48
2.71
2.22
1.87
1.47
0.86
-0.06
-1.21
-2.38
-3.31
-3.82
-3.90
-3.82
-4.01
-4.97
-7.13
-10.55
-14.89
-19.48
-23.40
-25.81
-26.16
-24.32
-20.57
-15.54
-9.97
-4.58
0.05
3.64
6.10
7.60
8.42
8.87
9.14
9.44
9.78
10.17
10.56
10.78
10.62
9.91
8.61
6.89
5.12
3.72
3.07
3.29
4.17
5.36
6.36
6.73
6.32
5.20
3.71
2.29
1.29
0.86
0.88
0.97
0.74
-0.11
-1.74
-4.01
-6.69
-9.49
-12.21
-14.74
-17.05
-19.13
-21.04
-22.97
-25.12
-27.76
-30.85
-34.03
-36.62
-37.85
-37.08
-34.16
-29.39
-23.36
-16.80
-10.36
-4.52
0.36
4.04
6.48
7.72
8.00
7.56
6.59
5.28
3.80
2.37
1.24
0.58
0.40
0.55
0.74
0.73
0.49
0.11
-0.15
-0.02
0.60
1.71
3.19
4.82
6.37
7.65
8.43
8.64
8.28
7.50
6.55
5.69
5.08
4.78
4.61
4.30
3.60
2.31
0.43
-1.83
-4.17
-6.22
-7.79
-9.00
-10.19
-11.81
-14.14
-16.98
-19.63
-21.10
-20.51
-17.47
-12.37
-6.19
-0.13
4.81
8.23
10.30
11.56
12.54
13.42
14.09
14.33
14.04
13.50
13.15
13.34
14.05
14.89
15.25
14.78
13.60
12.19
11.22
11.08
11.71
12.67
13.46
13.66
13.19
12.15
10.73
9.17
7.68
6.46
5.75
5.65
6.10
6.83
7.43
7.55
7.04
5.97
4.59
3.20
2.06
1.32
1.04
1.03
0.92
0.17
-1.68
-4.76
-8.68
-12.52
-15.17
-15.72
-13.82
-9.77
-4.45
1.08
5.94
9.60
12.00
13.35
13.96
14.05
13.74
13.02
11.95
10.70
9.47
8.46
7.74
7.20
6.71
6.18
5.61
5.13
4.84
4.77
4.90
5.17
5.55
6.01
6.45
6.72
6.68
6.13
5.09
3.77
2.41
1.30
0.53
0.01
-0.46
-1.10
-1.99
-3.06
-4.13
-5.11
-6.00
-6.90
-7.88
-8.93
-10.03
-11.19
-12.53
-14.24
-16.34
-18.52
-20.17
-20.51
-18.90
-15.27
-10.08
-4.24
1.19
5.46
8.28
9.76
10.32
10.41
10.28
10.02
9.64
9.12
8.59
8.20
8.03
8.00
7.88
7.39
6.47
5.20
3.89
2.86
2.26
2.06
2.07
1.95
1.45
0.42
-1.16
-3.11
-5.15
-7.00
-8.43
-9.35
-9.89
-10.25
-10.66
-11.33
-12.32
-13.53
-14.82
-15.98
-16.94
-17.74
-18.56
-19.59
-20.87
-22.29
-23.64
-24.86
-26.07
-27.61
-29.69
-32.11
-34.24
-35.09
-33.86
-30.31
-24.88
-18.49
-12.22
-6.86
-2.73
0.23
2.36
3.98
5.35
6.56
7.62
8.49
9.17
9.69
10.12
10.53
10.89
11.12
11.18
11.05
10.85
10.74
10.85
11.18
11.68
12.14
12.48
12.64
12.66
12.59
12.42
12.03
11.35
10.34
9.15
8.09
7.46
7.38
7.77
8.26
8.42
7.98
6.89
5.38
3.84
2.54
1.63
1.00
0.38
-0.56
-2.10
-4.38
-7.23
-10.23
-12.75
-14.09
-13.71
-11.41
-7.36
-2.10
3.61
9.05
13.66
17.15
19.48
20.72
21.04
20.62
19.64
18.34
17.08
16.08
15.46
15.10
14.65
13.78
12.29
10.32
8.30
6.73
5.98
6.11
6.76
7.29
7.05
5.59
2.92
-0.40
-3.53
-5.67
-6.31
-5.52
-3.76
-1.67
0.16
1.41
2.01
1.97
1.31
0.09
-1.64
-3.77
-6.18
-8.85
-11.72
-14.77
-17.78
-20.34
-21.95
-22.17
-20.79
-18.01
-14.26
-10.10
-6.07
-2.44
0.76
3.64
6.38
9.06
11.54
13.55
14.78
15.02
14.34
13.08
11.71
10.62
9.98
9.66
9.41
8.97
8.25
7.40
6.63
6.04
5.58
4.93
3.77
1.92
-0.46
-2.94
-4.89
-5.89
-5.82
-4.96
-3.88
-3.18
-3.23
-4.19
-5.89
-8.03
-10.33
-12.55
-14.55
-16.26
-17.67
-18.86
-20.03
-21.50
-23.64
-26.58
-30.05
-33.37
-35.64
-36.05
-34.29
-30.62
-25.71
-20.39
-15.29
-10.73
-6.81
-3.49
-0.73
1.42
2.93
3.79
4.06
4.00
3.92
4.16
4.97
6.37
8.12
9.84
11.13
11.82
11.99
11.86
11.69
11.61
11.55
11.41
11.10
10.56
9.84
8.99
8.07
7.13
6.28
5.54
4.98
4.58
4.28
4.06
3.85
3.53
3.01
2.15
0.86
-0.81
-2.63
-4.25
-5.24
-5.48
-5.17
-4.85
-5.18
-6.64
-9.19
-12.31
-15.09
-16.61
-16.30
-14.04
-10.19
-5.42
-0.43
4.17
8.00
10.90
12.93
14.28
15.21
15.92
16.45
16.73
16.68
16.24
15.55
14.75
14.01
13.44
12.99
12.67
12.52
12.54
12.79
13.22
13.64
13.83
13.60
12.88
11.80
10.57
9.42
8.52
7.90
7.49
7.16
6.65
5.83
4.70
3.35
2.04
0.97
0.15
-0.56
-1.38
-2.51
-4.04
-5.93
-8.12
-10.56
-13.15
-15.76
-18.05
-19.59
-19.98
-18.93
-16.46
-12.85
-8.51
-3.93
0.45
4.35
7.52
9.86
11.36
12.10
12.23
11.94
11.38
10.70
10.03
9.44
8.95
8.54
8.09
7.49
6.69
5.75
4.83
4.17
3.96
4.29
5.05
5.97
6.70
6.91
6.41
5.28
3.80
2.39
1.47
1.27
1.70
2.45
2.90
2.53
1.01
-1.62
-4.94
-8.29
-11.13
-13.15
-14.39
-15.20
-16.03
-17.26
-19.15
-21.69
-24.68
-27.66
-29.97
-30.87
-29.75
-26.35
-20.97
-14.43
-7.85
-2.33
1.43
3.30
3.66
3.22
2.73
2.62
3.00
3.65
4.16
4.21
3.70
2.76
1.70
0.81
0.24
0.07
0.25
0.70
1.39
2.23
3.09
3.84
4.21
4.02
3.22
1.90
0.34
-1.09
-2.14
-2.66
-2.71
-2.47
-2.17
-1.99
-2.09
-2.53
-3.23
-4.08
-4.82
-5.29
-5.47
-5.50
-5.65
-6.13
-6.91
-7.78
-8.51
-9.05
-9.73
-11.06
-13.30
-16.33
-19.38
-21.42
-21.62
-19.65
-15.82
-10.92
-5.82
-1.16
2.71
5.81
8.22
10.05
11.34
12.07
12.27
12.06
11.60
11.10
10.79
10.76
10.96
11.28
11.52
11.56
11.42
11.19
10.99
10.87
10.72
10.40
9.74
8.65
7.26
5.83
4.59
3.80
3.56
3.80
4.40
5.20
6.02
6.76
7.29
7.53
7.43
6.96
6.18
5.19
4.10
2.99
1.94
0.95
-0.02
-1.07
-2.44
-4.37
-6.97
-10.15
-13.43
-16.12
-17.49
-17.00
-14.53
-10.47
-5.50
-0.45
3.95
7.34
9.63
10.96
11.64
11.93
11.97
11.83
11.46
10.85
10.11
9.40
8.82
8.43
8.07
7.54
6.75
5.72
4.70
4.05
4.04
4.75
6.05
7.51
8.73
9.29
8.90
7.52
5.33
2.71
0.29
-1.41
-2.08
-1.81
-1.05
-0.47
-0.51
-1.34
-2.72
-4.18
-5.41
-6.28
-6.88
-7.43
-8.13
-9.10
-10.57
-12.70
-15.53
-18.86
-22.06
-24.32
-24.83
-23.14
-19.38
-14.17
-8.44
-3.09
1.19
4.14
5.85
6.68
7.09
7.46
7.93
8.36
8.47
8.03
7.06
5.79
4.57
3.67
3.11
2.74
2.41
2.05
1.78
1.82
2.25
3.01
3.78
4.16
3.86
2.80
1.18
-0.61
-2.12
-3.06
-3.28
-3.00
-2.58
-2.41
-2.78
-3.79
-5.30
-7.10
-8.89
-10.46
-11.70
-12.59
-13.17
-13.66
-14.35
-15.56
-17.60
-20.45
-23.74
-26.77
-28.69
-28.76
-26.66
-22.51
-16.92
-10.78
-4.90
0.06
3.82
6.42
8.06
9.02
9.54
9.79
9.87
9.91
9.98
10.16
10.46
10.73
10.82
10.62
10.11
9.43
8.83
8.51
8.63
9.20
10.06
10.95
11.54
11.51
10.74
9.25
7.34
5.45
3.94
3.05
2.82
3.04
3.46
3.82
3.89
3.55
2.75
1.54
0.09
-1.33
-2.52
-3.27
-3.61
-3.73
-3.96
-4.66
-6.19
-8.66
-11.92
-15.44
-18.36
-19.79
-19.04
-15.92
-10.90
-4.92
0.96
5.90
9.56
12.05
13.59
14.44
14.70
14.31
13.31
11.91
10.39
9.09
8.17
7.61
7.30
7.14
7.08
7.24
7.64
8.26
8.97
9.57
9.90
9.89
9.49
8.72
7.70
6.54
5.38
4.39
3.62
3.03
2.46
1.66
0.47
-1.08
-2.74
-4.16
-5.02
-5.27
-5.06
-4.71
-4.57
-4.83
-5.60
-6.91
-8.76
-11.11
-13.75
-16.17
-17.73
-17.81
-16.02
-12.54
-8.02
-3.28
0.91
4.16
6.47
8.08
9.23
10.03
10.38
10.22
9.59
8.71
7.93
7.53
7.58
7.92
8.17
8.00
7.27
6.09
4.81
3.86
3.54
3.98
5.03
6.29
7.27
7.59
7.07
5.85
4.38
3.10
2.34
2.13
2.16
1.96
1.11
-0.55
-2.83
-5.29
-7.49
-9.10
-10.04
-10.46
-10.61
-10.95
-11.94
-13.93
-17.09
-21.09
-25.14
-28.23
-29.40
-28.12
-24.63
-19.64
-14.20
-9.24
-5.34
-2.62
-0.94
0.06
0.70
1.14
1.49
1.74
1.92
2.07
2.20
2.23
2.01
1.43
0.44
-0.76
-1.88
-2.59
-2.69
-2.19
-1.32
-0.39
0.27
0.45
0.12
-0.62
-1.47
-2.07
-2.15
-1.60
-0.58
0.55
1.48
2.03
2.21
2.19
2.10
1.95
1.61
0.88
-0.33
-1.89
-3.55
-5.05
-6.29
-7.52
-9.11
-11.35
-14.23
-17.25
-19.56
-20.35
-19.08
-15.72
-10.81
-5.15
0.41
5.21
8.90
11.42
12.90
13.59
13.71
13.45
12.98
12.47
12.06
11.92
12.05
12.42
12.89
13.27
13.43
13.32
12.97
12.42
11.71
10.86
9.89
8.87
7.90
7.12
6.61
6.41
6.42
6.49
6.36
5.92
5.12
4.05
2.95
1.96
1.13
0.44
-0.22
-0.88
-1.46
-1.92
-2.29
-2.77
-3.71
-5.40
-7.83
-10.63
-13.02
-14.13
-13.34
-10.56
-6.26
-1.32
3.42
7.36
10.32
12.44
13.92
14.93
15.52
15.67
15.37
14.73
13.84
12.82
11.79
10.80
9.98
9.42
9.15
9.08
9.04
8.87
8.52
8.04
7.56
7.11
6.59
5.78
4.53
2.83
0.92
-0.84
-2.12
-2.81
-3.03
-3.10
-3.33
-3.88
-4.70
-5.59
-6.35
-6.96
-7.62
-8.63
-10.22
-12.30
-14.44
-15.98
-16.30
-15.06
-12.34
-8.51
-4.19
0.07
3.86
6.91
9.15
10.59
11.32
11.53
11.47
11.34
11.31
11.50
11.90
12.44
12.98
13.30
13.23
12.71
11.87
10.99
10.39
10.20
10.35
10.58
10.58
10.19
9.40
8.32
7.04
5.54
3.78
1.86
-0.01
-1.46
-2.18
-2.21
-1.87
-1.69
-2.17
-3.50
-5.47
-7.68
-9.61
-10.97
-11.69
-11.92
-11.95
-12.13
-12.74
-14.04
-16.15
-18.91
-21.93
-24.60
-26.18
-26.09
-24.08
-20.26
-15.23
-9.76
-4.67
-0.63
2.05
3.44
3.84
3.69
3.36
3.01
2.67
2.33
2.02
1.92
2.15
2.67
3.31
3.78
3.84
3.53
3.04
2.63
2.51
2.61
2.75
2.81
2.70
2.52
2.45
2.49
2.54
2.39
1.78
0.65
-0.82
-2.34
-3.58
-4.35
-4.74
-5.04
-5.63
-6.79
-8.51
-10.56
-12.62
-14.39
-15.72
-16.65
-17.29
-17.87
-18.63
-19.79
-21.50
-23.70
-25.95
-27.59
-27.85
-26.20
-22.60
-17.54
-11.83
-6.42
-1.96
1.27
3.34
4.59
5.43
6.14
6.83
7.42
7.78
7.89
7.81
7.74
7.88
8.27
8.79
9.27
9.54
9.64
9.75
10.00
10.46
11.01
11.36
11.31
10.81
9.94
8.90
7.81
6.69
5.57
4.51
3.67
3.30
3.59
4.49
5.78
7.00
7.76
7.88
7.33
6.36
5.22
4.03
2.79
1.51
0.19
-1.02
-1.97
-2.70
-3.43
-4.57
-6.45
-9.05
-11.86
-14.05
-14.70
-13.18
-9.50
-4.20
1.70
7.17
11.44
14.16
15.43
15.70
15.47
15.16
15.00
14.96
14.92
14.81
14.58
14.30
13.99
13.58
13.01
12.24
11.37
10.67
10.39
10.60
11.15
11.65
11.72
11.14
9.92
8.25
6.39
4.57
2.97
1.78
1.10
0.97
1.25
1.56
1.46
0.64
-0.95
-2.98
-4.92
-6.34
-7.05
-7.23
-7.31
-7.72
-8.81
-10.73
-13.31
-16.26
-19.08
-21.23
-22.20
-21.62
-19.36
-15.65
-11.02
-6.14
-1.77
1.60
3.77
4.83
5.11
5.01
4.81
4.66
4.54
4.36
4.06
3.69
3.32
3.04
2.86
2.73
2.60
2.48
2.42
2.53
2.84
3.37
4.09
4.86
5.55
6.05
6.22
6.02
5.51
4.80
4.05
3.44
2.99
2.65
2.30
1.82
1.17
0.39
-0.52
-1.51
-2.61
-3.85
-5.16
-6.52
-7.95
-9.56
-11.55
-14.02
-16.83
-19.59
-21.66
-22.34
-21.24
-18.39
-14.26
-9.67
-5.42
-2.13
-0.11
0.69
0.50
-0.34
-1.56
-2.96
-4.46
-5.92
-7.13
-7.78
-7.61
-6.54
-4.85
-2.99
-1.50
-0.73
-0.71
-1.21
-1.85
-2.33
-2.54
-2.49
-2.31
-2.19
-2.27
-2.65
-3.37
-4.27
-5.07
-5.47
-5.25
-4.46
-3.43
-2.61
-2.34
-2.75
-3.62
-4.63
-5.47
-5.95
-6.08
-5.93
-5.66
-5.53
-5.86
-6.98
-9.13
-12.11
-15.25
-17.54
-17.99
-16.03
-11.84
-6.21
-0.29
4.86
8.66
11.00
12.10
12.35
12.06
11.47
10.75
10.01
9.41
9.15
9.27
9.73
10.35
10.80
10.85
10.45
9.77
9.16
8.98
9.33
10.10
10.91
11.34
11.08
10.14
8.71
7.18
5.91
5.08
4.72
4.64
4.57
4.37
3.97
3.47
3.01
2.67
2.43
2.18
1.80
1.25
0.54
-0.39
-1.61
-3.22
-5.29
-7.59
-9.64
-10.85
-10.66
-8.84
-5.61
-1.56
2.55
6.03
8.52
9.93
10.44
10.34
9.82
9.08
8.28
7.51
6.86
6.36
5.95
5.55
5.10
4.56
3.96
3.42
2.93
2.53
2.21
1.96
1.83
1.82
1.81
1.68
1.25
0.47
-0.49
-1.42
-2.08
-2.33
-2.22
-1.89
-1.47
-1.15
-1.04
-1.20
-1.75
-2.77
-4.27
-6.22
-8.47
-10.76
-12.77
-14.09
-14.36
-13.37
-11.10
-7.81
-4.02
-0.30
2.84
5.06
6.36
6.93
7.08
7.10
7.09
7.01
6.78
6.32
5.76
5.35
5.27
5.62
6.28
6.97
7.47
7.71
7.75
7.74
7.74
7.70
7.47
6.96
6.15
5.15
4.11
3.11
2.24
1.53
0.95
0.52
0.19
-0.08
-0.35
-0.70
-1.18
-1.83
-2.76
-4.03
-5.63
-7.42
-9.15
-10.51
-11.42
-12.08
-12.94
-14.48
-16.87
-19.79
-22.49
-24.05
-23.82
-21.66
-17.95
-13.47
-9.03
-5.23
-2.42
-0.70
0.01
-0.17
-1.02
-2.21
-3.41
-4.31
-4.68
-4.55
-4.08
-3.52
-3.13
-2.99
-3.05
-3.17
-3.18
-2.97
-2.58
-2.17
-1.96
-2.13
-2.68
-3.45
-4.20
-4.66
-4.70
-4.32
-3.62
-2.81
-2.06
-1.46
-1.08
-0.86
-0.66
-0.32
0.28
1.19
2.23
3.18
3.79
3.87
3.39
2.44
1.11
-0.47
-2.22
-4.07
-5.96
-7.88
-9.82
-11.75
-13.56
-14.96
-15.51
-14.80
-12.59
-8.94
-4.35
0.47
4.84
8.26
10.59
11.97
12.67
12.98
13.09
13.06
12.88
12.54
12.09
11.63
11.33
11.28
11.46
11.71
11.74
11.37
10.57
9.56
8.71
8.29
8.35
8.64
8.71
8.20
7.04
5.47
3.94
2.92
2.57
2.80
3.35
3.87
4.20
4.32
4.28
4.16
4.00
3.72
3.29
2.71
2.09
1.56
1.27
1.27
1.57
1.97
2.18
1.84
0.62
-1.60
-4.55
-7.64
-10.03
-10.90
-9.86
-7.00
-2.91
1.51
5.45
8.45
10.37
11.42
11.87
11.84
11.38
10.47
9.19
7.82
6.67
6.04
6.03
6.49
7.13
7.68
7.90
7.70
7.09
6.12
4.93
3.75
2.79
2.24
2.14
2.34
2.58
2.63
2.32
1.69
0.96
0.35
0.12
0.31
0.76
1.16
1.12
0.44
-0.82
-2.36
-3.80
-4.82
-5.42
-5.75
-6.06
-6.67
-7.76
-9.39
-11.55
-14.00
-16.31
-17.93
-18.27
-16.99
-14.09
-10.01
-5.39
-0.94
2.84
5.67
7.49
8.38
8.48
7.95
7.01
5.86
4.75
3.88
3.30
2.95
2.71
2.36
1.84
1.21
0.58
0.09
-0.18
-0.28
-0.30
-0.31
-0.38
-0.50
-0.75
-1.21
-1.96
-3.04
-4.31
-5.54
-6.48
-6.98
-7.08
-7.01
-7.10
-7.64
-8.77
-10.44
-12.35
-14.22
-15.74
-16.77
-17.41
-17.88
-18.46
-19.44
-20.94
-22.86
-24.94
-26.75
-27.77
-27.58
-25.87
-22.60
-18.04
-12.70
-7.29
-2.49
1.22
3.64
4.89
5.34
5.40
5.45
5.67
6.08
6.56
7.05
7.45
7.83
8.31
8.95
9.78
10.71
11.52
12.01
12.04
11.64
11.05
10.54
10.28
10.24
10.21
9.93
9.32
8.51
7.77
7.38
7.39
7.65
7.91
7.91
7.60
7.08
6.43
5.71
4.90
3.87
2.64
1.39
0.37
-0.18
-0.22
-0.02
-0.04
-0.73
-2.39
-4.88
-7.66
-9.96
-10.96
-10.16
-7.52
-3.43
1.29
5.79
9.38
11.73
12.93
13.33
13.28
13.00
12.55
11.84
10.91
9.92
9.10
8.63
8.52
8.54
8.41
7.94
7.15
6.29
5.67
5.48
5.69
6.04
6.11
5.61
4.39
2.63
0.78
-0.67
-1.37
-1.25
-0.61
0.10
0.50
0.35
-0.29
-1.15
-2.01
-2.69
-3.18
-3.56
-3.88
-4.20
-4.64
-5.35
-6.57
-8.53
-11.19
-14.21
-16.91
-18.50
-18.39
-16.37
-12.73
-8.16
-3.47
0.64
3.71
5.61
6.46
6.53
6.16
5.66
5.21
4.88
4.73
4.69
4.75
4.85
4.86
4.70
4.26
3.59
2.83
2.14
1.65
1.38
1.19
0.92
0.51
-0.06
-0.68
-1.21
-1.54
-1.64
-1.47
-1.07
-0.48
0.24
0.90
1.34
1.40
0.93
-0.09
-1.59
-3.45
-5.45
-7.35
-8.99
-10.20
-10.94
-11.33
-11.60
-12.17
-13.42
-15.54
-18.39
-21.43
-23.82
-24.82
-23.97
-21.26
-17.24
-12.68
-8.36
-4.92
-2.62
-1.47
-1.28
-1.72
-2.40
-3.03
-3.31
-3.12
-2.49
-1.53
-0.45
0.53
1.31
1.85
2.21
2.55
2.94
3.44
4.05
4.67
5.23
5.64
5.84
5.83
5.69
5.51
5.44
5.61
5.98
6.44
6.78
6.78
6.43
5.85
5.26
4.87
4.73
4.68
4.47
3.84
2.70
1.21
-0.34
-1.67
-2.58
-3.10
-3.39
-3.66
-4.16
-5.06
-6.50
-8.53
-10.98
-13.44
-15.25
-15.66
-14.07
-10.38
-5.06
0.87
6.26
10.24
12.43
13.10
12.92
12.53
12.31
12.29
12.23
11.94
11.49
11.14
11.28
12.11
13.49
14.97
16.09
16.46
16.04
15.07
13.97
13.15
12.76
12.69
12.60
12.12
11.01
9.33
7.38
5.53
4.10
3.12
2.43
1.78
0.92
-0.23
-1.55
-2.93
-4.20
-5.23
-5.97
-6.36
-6.45
-6.45
-6.73
-7.68
-9.56
-12.27
-15.26
-17.70
-18.75
-17.90
-15.14
-10.93
-6.09
-1.48
2.25
4.77
6.12
6.63
6.76
6.89
7.20
7.59
7.84
7.76
7.30
6.62
6.01
5.65
5.59
5.72
5.83
5.85
5.81
5.86
6.21
6.87
7.70
8.35
8.47
7.78
6.31
4.33
2.26
0.58
-0.46
-0.79
-0.58
-0.13
0.24
0.35
0.09
-0.46
-1.19
-2.09
-3.16
-4.43
-5.91
-7.49
-9.07
-10.64
-12.28
-14.18
-16.42
-18.71
-20.50
-21.00
-19.64
-16.39
-11.84
-6.94
-2.69
0.34
2.13
3.03
3.51
3.92
4.26
4.38
4.11
3.37
2.30
1.15
0.09
-0.77
-1.43
-1.98
-2.40
-2.64
-2.61
-2.25
-1.65
-1.04
-0.69
-0.82
-1.50
-2.59
-3.87
-5.14
-6.26
-7.32
-8.44
-9.68
-11.02
-12.30
-13.34
-14.12
-14.70
-15.27
-15.99
-16.87
-17.75
-18.43
-18.70
-18.48
-17.84
-17.01
-16.30
-16.11
-16.72
-18.24
-20.41
-22.62
-24.02
-23.75
-21.31
-16.80
-10.88
-4.59
1.04
5.37
8.27
10.02
11.09
11.89
12.55
13.04
13.28
13.27
13.17
13.19
13.46
13.97
14.54
14.91
14.93
14.54
13.83
13.04
12.38
11.98
11.89
11.95
11.98
11.84
11.41
10.78
10.06
9.34
8.70
8.10
7.49
6.89
6.35
5.91
5.54
5.10
4.44
3.57
2.62
1.86
1.52
1.48
1.35
0.65
-1.05
-3.69
-6.77
-9.51
-11.10
-10.97
-8.99
-5.41
-0.76
4.24
8.90
12.61
14.94
15.83
15.52
14.49
13.32
12.46
12.04
12.01
12.12
12.12
11.92
11.46
10.71
9.66
8.27
6.64
5.04
3.85
3.41
3.82
4.74
5.66
6.01
5.54
4.36
2.89
1.54
0.59
0.01
-0.42
-0.89
-1.51
-2.24
-2.93
-3.47
-3.80
-3.91
-3.93
-4.08
-4.61
-5.81
-7.79
-10.30
-12.85
-14.73
-15.33
-14.35
-11.84
-8.21
-4.07
-0.00
3.55
6.31
8.26
9.48
10.12
10.34
10.23
9.83
9.26
8.61
8.07
7.77
7.72
7.81
7.90
7.90
7.83
7.77
7.76
7.75
7.69
7.47
7.10
6.64
6.12
5.51
4.73
3.75
2.70
1.84
1.36
1.34
1.59
1.73
1.44
0.50
-1.02
-2.87
-4.78
-6.51
-7.88
-8.90
-9.58
-9.96
-10.26
-10.72
-11.71
-13.57
-16.40
-19.93
-23.53
-26.36
-27.63
-26.94
-24.30
-20.21
-15.42
-10.65
-6.47
-3.19
-0.85
0.63
1.42
1.71
1.63
1.30
0.87
0.43
0.12
0.06
0.29
0.76
1.38
1.90
2.21
2.26
2.08
1.84
1.70
1.74
1.90
2.05
2.00
1.65
0.99
0.13
-0.71
-1.40
-1.84
-2.01
-2.01
-1.96
-1.93
-2.01
-2.13
-2.15
-2.01
-1.66
-1.18
-0.80
-0.77
-1.22
-2.16
-3.46
-4.89
-6.29
-7.49
-8.39
-9.02
-9.44
-9.98
-11.01
-12.77
-15.23
-17.84
-19.67
-19.85
-17.82
-13.69
-8.24
-2.50
2.61
6.56
9.24
10.89
11.77
12.14
12.15
11.84
11.28
10.58
9.90
9.44
9.36
9.69
10.30
10.91
11.21
11.06
10.52
9.86
9.43
9.41
9.75
10.22
10.49
10.41
10.05
9.55
9.07
8.64
8.16
7.56
6.86
6.21
5.82
5.82
6.13
6.52
6.64
6.27
5.39
4.16
2.79
1.51
0.37
-0.59
-1.32
-1.80
-2.02
-2.10
-2.45
-3.48
-5.44
-8.20
-11.12
-13.20
-13.55
-11.67
-7.74
-2.57
2.80
7.40
10.68
12.60
13.50
13.86
14.10
14.37
14.61
14.62
14.14
13.10
11.61
9.90
8.18
6.67
5.41
4.47
3.92
3.73
3.92
4.40
4.96
5.42
5.61
5.40
4.80
3.86
2.68
1.45
0.39
-0.21
-0.19
0.45
1.44
2.36
2.79
2.51
1.60
0.32
-0.93
-1.85
-2.38
-2.62
-2.73
-2.93
-3.37
-4.19
-5.58
-7.67
-10.42
-13.54
-16.44
-18.39
-18.79
-17.30
-14.08
-9.60
-4.56
0.28
4.31
7.20
8.86
9.48
9.48
9.21
8.91
8.66
8.37
8.04
7.74
7.57
7.64
7.86
8.01
7.84
7.28
6.46
5.68
5.20
5.11
5.29
5.50
5.52
5.29
4.84
4.28
3.75
3.27
2.80
2.28
1.61
0.75
-0.24
-1.29
-2.30
-3.18
-3.98
-4.78
-5.72
-6.84
-8.06
-9.25
-10.29
-11.22
-12.30
-13.84
-15.98
-18.56
-21.06
-22.79
-23.27
-22.35
-20.24
-17.42
-14.30
-11.16
-8.15
-5.41
-3.10
-1.44
-0.47
-0.08
-0.03
-0.03
0.05
0.18
0.35
0.52
0.75
1.12
1.59
2.00
2.21
2.09
1.69
1.18
0.69
0.28
-0.09
-0.56
-1.23
-2.11
-3.10
-4.05
-4.79
-5.24
-5.44
-5.47
-5.55
-5.85
-6.46
-7.40
-8.55
-9.79
-11.07
-12.39
-13.77
-15.18
-16.41
-17.34
-17.94
-18.38
-19.06
-20.25
-21.88
-23.45
-24.11
-23.06
-19.98
-15.18
-9.52
-4.01
0.60
4.00
6.32
7.91
9.09
10.04
10.75
11.15
11.16
10.84
10.31
9.78
9.45
9.40
9.59
9.92
10.18
10.31
10.36
10.41
10.61
11.02
11.50
11.85
11.84
11.28
10.22
8.83
7.36
6.09
5.19
4.61
4.27
3.99
3.65
3.25
2.77
2.27
1.72
1.04
0.20
-0.71
-1.58
-2.29
-2.87
-3.58
-4.77
-6.70
-9.37
-12.39
-15.07
-16.65
-16.54
-14.57
-10.99
-6.37
-1.44
3.14
6.96
9.81
11.73
12.92
13.53
13.63
13.23
12.27
10.80
8.98
7.02
5.18
3.62
2.35
1.33
0.60
0.26
0.44
1.17
2.30
3.51
4.45
4.89
4.87
4.60
4.30
4.14
4.05
3.87
3.47
2.78
1.87
0.83
-0.35
-1.70
-3.23
-4.95
-6.73
-8.44
-10.01
-11.49
-12.96
-14.51
-15.99
-17.04
-17.15
-15.77
-12.66
-7.94
-2.14
3.89
9.27
13.30
15.64
16.39
16.06
15.25
14.50
14.09
13.92
13.72
13.27
12.50
11.62
10.93
10.64
10.79
11.21
11.63
11.89
11.99
12.06
12.30
12.74
13.25
13.57
13.34
12.34
10.56
8.21
5.65
3.33
1.52
0.33
-0.31
-0.68
-1.05
-1.74
-3.09
-5.34
-8.54
-12.41
-16.30
-19.31
-20.61
-19.66
-16.53
-11.85
-6.56
-1.66
2.10
4.41
5.33
5.26
4.73
4.24
4.11
4.49
5.18
5.88
6.27
6.19
5.71
5.07
4.52
4.16
3.99
3.90
3.84
3.86
4.02
4.31
4.60
4.65
4.30
3.52
2.53
1.64
1.08
0.84
0.77
0.59
0.15
-0.55
-1.40
-2.22
-2.89
-3.42
-3.89
-4.38
-5.03
-5.98
-7.39
-9.37
-11.80
-14.36
-16.47
-17.45
-16.84
-14.51
-10.76
-6.23
-1.68
2.31
5.33
7.32
8.42
8.86
8.89
8.71
8.44
8.15
7.94
7.86
7.96
8.27
8.71
9.16
9.46
9.48
9.20
8.65
7.92
7.11
6.29
5.50
4.85
4.37
4.05
3.83
3.58
3.16
2.53
1.70
0.77
-0.10
-0.78
-1.15
-1.14
-0.87
-0.54
-0.48
-1.06
-2.43
-4.52
-6.97
-9.29
-11.05
-12.09
-12.49
-12.60
-12.86
-13.68
-15.38
-18.02
-21.32
-24.68
-27.26
-28.24
-27.07
-23.74
-18.76
-13.09
-7.74
-3.46
-0.58
1.07
1.94
2.50
3.03
3.57
3.94
3.99
3.71
3.28
3.02
3.07
3.46
3.98
4.39
4.53
4.41
4.13
3.79
3.45
3.02
2.37
1.41
0.12
-1.33
-2.65
-3.54
-3.75
-3.25
-2.31
-1.32
-0.77
-0.94
-1.78
-2.94
-3.91
-4.29
-4.00
-3.28
-2.49
-1.99
-1.91
-2.13
-2.55
-3.09
-3.78
-4.76
-5.97
-7.20
-8.17
-8.69
-8.90
-9.28
-10.34
-12.30
-14.85
-17.15
-18.20
-17.25
-14.12
-9.27
-3.61
1.91
6.52
9.84
11.82
12.65
12.65
12.23
11.71
11.36
11.29
11.43
11.65
11.80
11.79
11.65
11.45
11.18
10.86
10.47
10.05
9.73
9.63
9.83
10.30
10.84
11.21
11.28
10.98
10.40
9.68
8.92
8.14
7.45
6.91
6.68
6.82
7.22
7.59
7.57
6.83
5.37
3.40
1.31
-0.51
-1.87
-2.79
-3.39
-3.90
-4.57
-5.64
-7.33
-9.70
-12.50
-15.17
-16.94
-17.08
-15.32
-11.88
-7.47
-3.01
0.75
3.46
5.13
6.06
6.63
7.10
7.64
8.25
8.82
9.26
9.50
9.46
9.16
8.65
7.96
7.22
6.53
6.02
5.82
5.96
6.36
6.88
7.25
7.30
6.98
6.27
5.23
3.97
2.54
1.07
-0.20
-1.10
-1.48
-1.40
-1.09
-0.85
-0.97
-1.59
-2.60
-3.79
-4.90
-5.76
-6.34
-6.82
-7.47
-8.62
-10.56
-13.31
-16.66
-20.04
-22.66
-23.80
-22.98
-20.19
-15.95
-11.07
-6.49
-2.91
-0.60
0.58
1.06
1.29
1.52
1.73
1.70
1.17
0.07
-1.47
-3.14
-4.60
-5.60
-6.13
-6.30
-6.27
-6.14
-5.86
-5.28
-4.28
-2.81
-1.03
0.70
1.95
2.35
1.75
0.33
-1.43
-2.98
-3.82
-3.82
-3.16
-2.26
-1.64
-1.64
-2.30
-3.49
-4.95
-6.35
-7.49
-8.28
-8.75
-9.07
-9.49
-10.19
-11.26
-12.52
-13.59
-14.03
-13.38
-11.48
-8.43
-4.60
-0.50
3.34
6.61
9.11
10.85
11.96
12.57
12.82
12.82
12.61
12.26
11.80
11.23
10.53
9.73
8.84
7.96
7.29
6.99
7.22
7.93
8.92
9.87
10.50
10.71
10.58
10.30
10.06
9.90
9.72
9.36
8.75
7.89
6.95
6.05
5.21
4.35
3.33
2.02
0.51
-1.04
-2.50
-3.83
-5.20
-6.90
-9.07
-11.56
-13.85
-15.13
-14.69
-12.25
-8.11
-3.11
1.69
5.50
7.93
9.07
9.32
9.01
8.35
7.43
6.25
4.96
3.85
3.19
3.10
3.50
4.04
4.40
4.41
4.13
3.88
3.95
4.46
5.29
6.10
6.50
6.26
5.39
4.13
2.80
1.65
0.72
-0.09
-0.99
-2.09
-3.34
-4.54
-5.44
-5.84
-5.81
-5.59
-5.50
-5.88
-6.93
-8.69
-11.07
-13.72
-16.13
-17.68
-17.82
-16.28
-13.23
-9.22
-5.02
-1.37
1.34
3.01
3.84
4.15
4.18
4.10
4.03
3.91
3.70
3.35
2.80
2.13
1.45
0.88
0.49
0.19
-0.15
-0.61
-1.15
-1.61
-1.77
-1.54
-1.06
-0.60
-0.52
-1.02
-2.07
-3.40
-4.63
-5.40
-5.61
-5.41
-5.10
-5.09
-5.62
-6.74
-8.31
-10.03
-11.60
-12.84
-13.66
-14.16
-14.57
-15.13
-16.09
-17.51
-19.19
-20.71
-21.47
-20.91
-18.81
-15.31
-10.86
-6.15
-1.80
1.75
4.31
5.97
6.98
7.59
8.06
8.54
9.03
9.49
9.88
10.19
10.42
10.58
10.62
10.51
10.22
9.86
9.59
9.58
9.88
10.41
10.96
11.31
11.33
10.96
10.21
9.21
8.02
6.81
5.73
4.93
4.48
4.34
4.34
4.28
4.00
3.46
2.79
2.18
1.80
1.68
1.60
1.21
0.15
-1.79
-4.43
-7.21
-9.35
-10.13
-9.10
-6.31
-2.21
2.53
7.11
10.93
13.62
15.06
15.42
15.06
14.38
13.74
13.30
13.06
12.88
12.61
12.15
11.51
10.69
9.75
8.75
7.73
6.82
6.18
5.88
5.91
6.14
6.31
6.21
5.72
4.80
3.58
2.23
0.91
-0.25
-1.20
-2.00
-2.69
-3.37
-4.12
-4.90
-5.68
-6.40
-7.08
-7.87
-9.03
-10.79
-13.17
-15.90
-18.35
-19.92
-20.10
-18.78
-16.27
-13.08
-9.80
-6.83
-4.34
-2.29
-0.55
0.99
2.36
3.48
4.26
4.61
4.56
4.25
3.88
3.60
3.46
3.33
3.01
2.40
1.56
0.77
0.37
0.47
0.92
1.30
1.13
0.17
-1.48
-3.44
-5.22
-6.49
-7.21
-7.53
-7.68
-7.85
-8.12
-8.53
-9.12
-9.88
-10.79
-11.67
-12.31
-12.58
-12.49
-12.22
-12.18
-12.74
-14.10
-16.23
-18.75
-21.00
-22.30
-22.06
-19.98
-16.22
-11.31
-6.05
-1.26
2.48
4.92
6.14
6.50
6.41
6.24
6.24
6.53
7.09
7.87
8.69
9.37
9.78
9.84
9.69
9.51
9.47
9.63
9.94
10.24
10.44
10.52
10.44
10.13
9.48
8.36
6.83
5.14
3.68
2.87
2.83
3.42
4.28
4.95
5.13
4.81
4.16
3.44
2.90
2.56
2.34
2.02
1.33
0.10
-1.71
-4.02
-6.54
-8.86
-10.47
-10.85
-9.65
-6.81
-2.69
2.03
6.53
10.15
12.53
13.73
14.15
14.23
14.33
14.60
14.92
15.08
14.92
14.36
13.49
12.47
11.43
10.47
9.61
8.86
8.26
7.88
7.70
7.71
7.76
7.64
7.20
6.36
5.20
3.91
2.68
1.65
0.89
0.33
-0.13
-0.56
-1.06
-1.65
-2.26
-2.86
-3.42
-3.95
-4.56
-5.38
-6.49
-7.97
-9.77
-11.76
-13.71
-15.25
-16.00
-15.61
-13.93
-11.09
-7.52
-3.80
-0.50
2.04
3.78
4.93
5.77
6.56
7.32
7.90
8.09
7.74
6.87
5.74
4.66
3.95
3.73
3.89
4.17
4.31
4.15
3.75
3.27
2.88
2.67
2.49
2.18
1.58
0.66
-0.37
-1.25
-1.78
-1.99
-2.08
-2.38
-3.10
-4.12
-5.16
-5.87
-6.12
-6.20
-6.63
-7.98
-10.52
-14.13
-18.34
-22.65
-26.63
-30.03
-32.67
-34.25
-34.46
-33.07
-30.07
-25.88
-21.15
-16.54
-12.55
-9.29
-6.59
-4.28
-2.24
-0.52
0.69
1.27
1.29
1.01
0.80
0.97
1.60
2.59
3.65
4.47
4.95
5.16
5.34
5.74
6.48
7.43
8.34
8.84
8.71
8.01
6.97
6.01
5.46
5.43
5.73
6.07
6.10
5.65
4.80
3.69
2.49
1.28
0.04
-1.19
-2.27
-3.04
-3.43
-3.60
-3.99
-5.01
-6.84
-9.21
-11.40
-12.53
-11.97
-9.49
-5.50
-0.71
4.09
8.21
11.26
13.14
13.91
13.88
13.44
12.95
12.68
12.73
12.96
13.23
13.35
13.27
13.07
12.86
12.77
12.85
13.10
13.48
13.93
14.31
14.48
14.29
13.62
12.44
10.86
9.04
7.18
5.50
4.08
2.94
2.00
1.09
0.13
-0.94
-2.07
-3.15
-4.11
-5.01
-6.02
-7.45
-9.54
-12.27
-15.36
-18.22
-20.12
-20.48
-19.02
-15.84
-11.45
-6.58
-1.94
1.88
4.67
6.48
7.59
8.31
8.85
9.26
9.44
9.30
8.77
7.98
7.07
6.21
5.48
4.87
4.36
4.03
3.97
4.28
5.04
6.07
7.11
7.84
8.00
7.49
6.46
5.16
3.93
3.08
2.68
2.63
2.73
2.69
2.35
1.61
0.47
-0.97
-2.61
-4.33
-6.01
-7.55
-8.89
-10.09
-11.34
-12.93
-15.05
-17.67
-20.40
-22.50
-23.24
-22.11
-19.08
-14.76
-9.97
-5.59
-2.16
0.21
1.72
2.65
3.18
3.37
3.18
2.71
2.11
1.59
1.34
1.32
1.43
1.47
1.31
0.94
0.48
0.06
-0.20
-0.27
-0.20
-0.05
0.11
0.24
0.30
0.23
-0.05
-0.59
-1.34
-2.18
-2.89
-3.30
-3.34
-3.10
-2.78
-2.62
-2.77
-3.31
-4.18
-5.20
-6.23
-7.09
-7.66
-7.96
-8.12
-8.41
-9.17
-10.62
-12.78
-15.37
-17.78
-19.30
-19.24
-17.21
-13.35
-8.31
-3.03
1.52
4.73
6.57
7.43
7.90
8.48
9.30
10.21
10.98
11.42
11.62
11.74
11.89
12.07
12.12
11.89
11.40
10.82
10.40
10.35
10.66
11.14
11.53
11.53
11.07
10.27
9.33
8.44
7.70
7.06
6.45
5.89
5.48
5.41
5.79
6.52
7.31
7.80
7.67
6.85
5.50
3.95
2.63
1.75
1.31
1.06
0.55
-0.65
-2.77
-5.72
-9.06
-12.07
-14.08
-14.61
-13.47
-10.82
-7.03
-2.56
2.01
6.19
9.55
11.83
13.03
13.36
13.17
12.78
12.33
11.83
11.16
10.26
9.17
8.05
7.05
6.24
5.60
5.03
4.45
3.93
3.56
3.50
3.84
4.45
5.07
5.42
5.25
4.54
3.48
2.32
1.30
0.50
-0.16
-0.81
-1.56
-2.46
-3.43
-4.43
-5.41
-6.34
-7.22
-8.07
-8.94
-10.00
-11.46
-13.47
-15.99
-18.68
-20.91
-22.03
-21.51
-19.22
-15.50
-10.99
-6.44
-2.45
0.71
3.01
4.59
5.62
6.14
6.17
5.75
4.93
3.92
2.92
2.01
1.22
0.49
-0.21
-0.82
-1.13
-0.99
-0.34
0.74
1.97
3.01
3.62
3.65
3.13
2.22
1.10
-0.05
-1.10
-2.01
-2.74
-3.39
-4.06
-4.86
-5.90
-7.17
-8.59
-10.01
-11.28
-12.25
-12.95
-13.44
-13.97
-14.88
-16.52
-19.03
-22.24
-25.52
-27.98
-28.81
-27.54
-24.34
-19.91
-15.17
-10.95
-7.66
-5.28
-3.57
-2.19
-0.83
0.70
2.49
4.50
6.51
8.20
9.27
9.57
9.22
8.59
8.05
7.88
8.14
8.69
9.33
9.91
10.38
10.67
10.67
10.23
9.24
7.77
6.10
4.67
3.81
3.70
4.23
5.04
5.73
6.06
5.88
5.22
4.18
2.86
1.42
0.02
-1.18
-2.07
-2.74
-3.47
-4.67
-6.58
-9.20
-12.07
-14.44
-15.51
-14.69
-11.87
-7.50
-2.35
2.62
6.68
9.56
11.37
12.52
13.36
14.02
14.38
14.24
13.52
12.38
11.18
10.24
9.77
9.70
9.78
9.82
9.76
9.71
9.88
10.36
11.10
11.88
12.34
12.19
11.34
9.86
8.02
6.18
4.62
3.44
2.64
2.06
1.56
1.04
0.44
-0.27
-1.11
-2.17
-3.46
-5.05
-6.97
-9.22
-11.72
-14.26
-16.43
-17.74
-17.75
-16.19
-13.16
-9.08
-4.55
-0.27
3.26
5.82
7.38
8.15
8.39
8.27
7.92
7.43
6.88
6.41
6.13
6.09
6.28
6.54
6.69
6.62
6.29
5.72
5.08
4.49
4.13
4.10
4.39
4.82
5.15
5.09
4.57
3.74
2.87
2.21
1.83
1.51
0.94
-0.15
-1.82
-3.84
-5.86
-7.53
-8.71
-9.43
-9.95
-10.63
-11.84
-13.82
-16.51
-19.56
-22.30
-23.91
-23.79
-21.71
-17.92
-13.12
-8.11
-3.57
0.10
2.82
4.70
5.90
6.51
6.56
6.07
5.17
4.08
3.05
2.28
1.82
1.57
1.33
0.94
0.37
-0.27
-0.81
-1.11
-1.08
-0.81
-0.35
0.24
0.81
1.26
1.41
1.11
0.32
-0.77
-1.82
-2.45
-2.47
-2.02
-1.44
-1.23
-1.71
-2.93
-4.63
-6.39
-7.78
-8.57
-8.74
-8.49
-8.26
-8.48
-9.51
-11.48
-14.23
-17.25
-19.85
-21.32
-21.09
-18.97
-15.06
-9.84
-4.05
1.47
5.97
8.96
10.39
10.61
10.21
9.78
9.63
9.80
10.13
10.42
10.61
10.76
10.97
11.27
11.63
11.96
12.19
12.32
12.33
12.27
12.12
11.88
11.60
11.35
11.15
10.96
10.64
10.02
9.04
7.77
6.46
5.39
4.78
4.67
4.91
5.21
5.28
4.94
4.13
2.97
1.68
0.45
-0.53
-1.18
-1.53
-1.74
-2.09
-2.94
-4.54
-6.97
-9.95
-12.86
-14.93
-15.45
-14.06
-10.90
-6.54
-1.82
2.47
5.78
7.97
9.15
9.58
9.56
9.24
8.72
8.10
7.45
6.87
6.49
6.36
6.43
6.59
6.70
6.66
6.45
6.16
5.94
5.96
6.27
6.86
7.51
7.95
7.95
7.33
6.14
4.58
2.92
1.49
0.58
0.27
0.49
0.95
1.19
0.81
-0.40
-2.41
-4.86
-7.28
-9.25
-10.52
-11.16
-11.45
-11.79
-12.56
-13.98
-15.98
-18.23
-20.14
-21.05
-20.48
-18.28
-14.61
-9.97
-5.01
-0.26
3.80
6.92
9.04
10.18
10.50
10.20
9.47
8.51
7.53
6.68
6.12
5.86
5.79
5.70
5.38
4.73
3.86
3.00
2.37
2.10
2.12
2.27
2.36
2.26
1.94
1.40
0.63
-0.38
-1.63
-3.07
-4.55
-5.83
-6.78
-7.33
-7.59
-7.83
-8.30
-9.18
-10.51
-12.15
-13.86
-15.46
-16.75
-17.73
-18.47
-19.15
-20.03
-21.36
-23.22
-25.41
-27.37
-28.28
-27.42
-24.43
-19.52
-13.46
-7.23
-1.70
2.60
5.67
7.74
9.11
10.02
10.49
10.55
10.26
9.80
9.39
9.23
9.38
9.77
10.25
10.66
10.91
11.03
11.06
11.07
11.12
11.17
11.16
11.08
10.87
10.58
10.23
9.82
9.34
8.75
8.06
7.34
6.73
6.34
6.21
6.17
5.98
5.40
4.32
2.86
1.30
-0.09
-1.13
-1.82
-2.37
-3.04
-4.09
-5.73
-7.98
-10.71
-13.51
-15.77
-16.83
-16.16
-13.60
-9.44
-4.34
0.92
5.58
9.20
11.69
13.20
13.98
14.32
14.36
14.19
13.82
13.18
12.30
11.25
10.15
9.18
8.50
8.16
8.15
8.37
8.71
9.10
9.52
9.92
10.24
10.33
9.98
9.07
7.64
5.92
4.30
3.09
2.41
2.16
2.02
1.67
0.95
-0.18
-1.61
-3.17
-4.74
-6.22
-7.52
-8.62
-9.52
-10.41
-11.56
-13.26
-15.64
-18.46
-21.13
-22.90
-23.13
-21.50
-18.15
-13.57
-8.42
-3.35
1.09
4.54
6.80
7.87
7.96
7.38
6.54
5.73
5.10
4.64
4.28
3.90
3.48
3.06
2.67
2.38
2.24
2.29
2.53
2.88
3.19
3.31
3.07
2.41
1.38
0.11
-1.18
-2.24
-2.91
-3.13
-2.93
-2.50
-2.08
-1.93
-2.27
-3.20
-4.69
-6.56
-8.53
-10.32
-11.76
-12.82
-13.74
-14.94
-16.83
-19.68
-23.33
-27.14
-30.16
-31.40
-30.25
-26.73
-21.46
-15.44
-9.66
-4.76
-0.91
2.03
4.35
6.23
7.72
8.83
9.60
10.12
10.52
10.89
11.21
11.45
11.55
11.51
11.40
11.26
11.12
10.95
10.70
10.39
10.10
9.93
9.94
10.12
10.32
10.35
10.03
9.22
7.95
6.36
4.75
3.53
2.96
3.16
3.91
4.73
5.05
4.48
2.94
0.74
-1.59
-3.58
-5.00
-5.89
-6.55
-7.33
-8.51
-10.29
-12.64
-15.36
-17.99
-19.85
-20.14
-18.23
-13.89
-7.52
-0.10
7.12
13.01
16.89
18.71
18.88
18.05
16.86
15.73
14.91
14.46
14.35
14.46
14.65
14.68
14.37
13.72
12.85
12.07
11.65
11.71
12.18
12.80
13.26
13.36
13.02
12.29
11.24
9.92
8.36
6.66
4.95
3.45
2.32
1.61
1.16
0.78
0.23
-0.59
-1.67
-2.95
-4.30
-5.63
-6.95
-8.25
-9.60
-11.13
-12.99
-15.33
-18.11
-21.04
-23.55
-24.99
-24.73
-22.52
-18.53
-13.30
-7.56
-2.02
2.82
6.66
9.39
11.04
11.70
11.51
10.68
9.48
8.18
7.02
6.14
5.59
5.35
5.35
5.59
6.00
6.50
6.94
7.17
7.13
6.87
6.57
6.45
6.65
7.04
7.35
7.25
6.51
5.24
3.77
2.52
1.81
1.67
1.80
1.75
1.14
-0.28
-2.40
-4.95
-7.52
-9.77
-11.48
-12.63
-13.32
-13.85
-14.60
-15.94
-18.20
-21.35
-24.96
-28.29
-30.42
-30.57
-28.49
-24.43
-19.10
-13.45
-8.28
-4.10
-1.08
0.93
2.15
2.78
2.97
2.76
2.20
1.45
0.67
0.09
-0.13
-0.01
0.37
0.85
1.31
1.77
2.34
3.13
4.17
5.37
6.48
7.31
7.73
7.72
7.43
7.06
6.80
6.77
6.96
7.19
7.23
6.90
6.13
5.08
3.99
3.08
2.43
1.87
1.17
0.14
-1.19
-2.55
-3.60
-4.13
-4.16
-3.95
-3.84
-4.13
-5.07
-6.81
-9.39
-12.66
-16.18
-19.21
-20.91
-20.60
-18.03
-13.59
-8.06
-2.38
2.65
6.59
9.37
11.09
11.99
12.36
12.43
12.43
12.51
12.63
12.71
12.63
12.33
11.93
11.65
11.72
12.25
13.15
14.17
15.02
15.52
15.70
15.70
15.68
15.68
15.61
15.22
14.36
13.06
11.49
9.93
8.62
7.66
6.96
6.42
5.88
5.28
4.58
3.75
2.78
1.61
0.21
-1.38
-3.06
-4.68
-6.01
-7.00
-7.77
-8.64
-10.10
-12.44
-15.61
-19.09
-21.98
-23.28
-22.35
-19.11
-14.01
-7.99
-1.99
3.25
7.29
10.07
11.69
12.38
12.36
11.79
10.81
9.57
8.21
6.89
5.78
4.99
4.52
4.36
4.42
4.65
5.04
5.59
6.31
7.20
8.14
9.03
9.71
9.99
9.77
9.02
7.82
6.38
4.94
3.66
2.62
1.72
0.83
-0.17
-1.38
-2.77
-4.22
-5.64
-6.91
-7.89
-8.58
-9.01
-9.30
-9.70
-10.47
-11.83
-13.93
-16.71
-19.85
-22.82
-24.89
-25.39
-23.92
-20.47
-15.54
-9.92
-4.38
0.48
4.36
7.26
9.25
10.44
10.98
10.97
10.59
10.05
9.53
9.13
8.87
8.67
8.41
8.07
7.66
7.35
7.27
7.56
8.21
9.07
9.88
10.42
10.54
10.20
9.50
8.51
7.30
5.92
4.44
3.03
1.89
1.13
0.71
0.43
-0.08
-1.12
-2.75
-4.86
-7.11
-9.16
-10.85
-12.17
-13.29
-14.48
-15.91
-17.74
-20.02
-22.69
-25.57
-28.26
-30.20
-30.81
-29.62
-26.49
-21.76
-16.08
-10.24
-4.97
-0.73
2.36
4.42
5.70
6.48
6.93
7.16
7.15
6.86
6.25
5.36
4.30
3.26
2.48
2.16
2.39
3.02
3.82
4.54
4.95
5.01
4.77
4.32
3.70
2.93
1.97
0.87
-0.23
-1.22
-1.91
-2.26
-2.33
-2.24
-2.17
-2.27
-2.57
-3.11
-3.84
-4.68
-5.59
-6.51
-7.40
-8.30
-9.29
-10.54
-12.29
-14.66
-17.50
-20.36
-22.51
-23.13
-21.69
-18.12
-12.85
-6.72
-0.62
4.69
8.85
11.84
13.85
15.18
16.05
16.52
16.59
16.22
15.46
14.51
13.65
13.14
13.08
13.39
13.84
14.25
14.58
14.88
15.29
15.85
16.41
16.76
16.67
15.98
14.77
13.24
11.68
10.41
9.59
9.22
9.10
8.83
8.07
6.65
4.69
2.59
0.81
-0.37
-0.94
-1.14
-1.32
-1.80
-2.76
-4.35
-6.62
-9.53
-12.85
-16.06
-18.46
-19.37
-18.33
-15.39
-11.04
-6.00
-1.04
3.28
6.70
9.16
10.78
11.72
12.09
11.99
11.46
10.53
9.35
8.10
7.06
6.46
6.42
6.81
7.40
7.90
8.16
8.21
8.21
8.35
8.73
9.21
9.51
9.39
8.68
7.49
6.05
4.62
3.37
2.31
1.34
0.32
-0.85
-2.22
-3.73
-5.28
-6.77
-8.03
-8.97
-9.57
-9.92
-10.30
-11.07
-12.54
-14.80
-17.61
-20.43
-22.56
-23.35
-22.35
-19.46
-14.93
-9.31
-3.38
2.03
6.29
8.99
10.15
10.13
9.42
8.53
7.72
7.06
6.46
5.87
5.34
4.98
4.90
5.06
5.39
5.74
6.03
6.31
6.62
6.98
7.35
7.61
7.65
7.40
6.80
5.81
4.43
2.76
1.02
-0.46
-1.45
-1.95
-2.22
-2.67
-3.62
-5.16
-7.02
-8.85
-10.39
-11.58
-12.53
-13.41
-14.29
-15.14
-16.07
-17.29
-19.09
-21.62
-24.60
-27.28
-28.71
-28.07
-25.11
-20.28
-14.52
-8.88
-4.18
-0.73
1.56
3.02
4.00
4.68
5.15
5.44
5.55
5.56
5.58
5.67
5.88
6.18
6.53
6.90
7.29
7.74
8.29
8.97
9.72
10.40
10.84
10.89
10.49
9.71
8.70
7.69
6.85
6.27
5.97
5.83
5.72
5.54
5.17
4.54
3.64
2.47
1.13
-0.19
-1.34
-2.17
-2.60
-2.72
-2.69
-2.73
-3.12
-4.13
-5.97
-8.63
-11.78
-14.72
-16.59
-16.61
-14.45
-10.39
-5.21
0.05
4.50
7.67
9.46
10.15
10.16
9.90
9.65
9.58
9.67
9.83
9.93
9.89
9.77
9.69
9.70
9.80
9.85
9.72
9.40
9.01
8.79
8.91
9.32
9.78
9.94
9.52
8.55
7.27
6.05
5.19
4.77
4.61
4.48
4.23
3.78
3.24
2.71
2.23
1.72
1.09
0.26
-0.72
-1.75
-2.74
-3.68
-4.73
-6.21
-8.36
-11.26
-14.57
-17.62
-19.57
-19.67
-17.62
-13.74
-8.83
-3.89
0.24
3.21
5.14
6.41
7.40
8.27
8.92
9.17
8.91
8.22
7.39
6.69
6.32
6.25
6.30
6.25
6.05
5.76
5.54
5.55
5.81
6.20
6.56
6.70
6.53
6.09
5.45
4.76
4.09
3.42
2.71
1.90
0.98
0.11
-0.54
-0.84
-0.81
-0.69
-0.83
-1.46
-2.65
-4.16
-5.60
-6.64
-7.16
-7.26
-7.29
-7.65
-8.63
-10.35
-12.71
-15.36
-17.79
-19.38
-19.59
-18.17
-15.18
-11.07
-6.50
-2.10
1.61
4.38
6.18
7.10
7.30
7.02
6.47
5.85
5.34
5.00
4.82
4.75
4.73
4.73
4.78
4.87
5.01
5.14
5.21
5.17
5.00
4.69
4.30
3.83
3.33
2.86
2.43
2.08
1.82
1.59
1.33
0.97
0.47
-0.13
-0.74
-1.30
-1.77
-2.18
-2.63
-3.25
-4.13
-5.33
-6.75
-8.28
-9.79
-11.10
-12.14
-12.90
-13.43
-13.89
-14.53
-15.56
-17.13
-19.12
-21.14
-22.64
-23.02
-21.88
-19.25
-15.54
-11.42
-7.65
-4.74
-2.85
-1.80
-1.20
-0.65
0.04
0.83
1.46
1.64
1.27
0.47
-0.49
-1.27
-1.78
-2.05
-2.30
-2.67
-3.22
-3.85
-4.54
-5.32
-6.23
-7.24
-8.06
-8.27
-7.53
-5.80
-3.46
-1.16
0.50
1.26
1.29
1.05
0.96
1.19
1.59
1.82
1.65
1.12
0.45
-0.12
-0.52
-0.92
-1.55
-2.58
-3.95
-5.33
-6.38
-6.94
-7.11
-7.25
-7.81
-9.04
-10.96
-13.26
-15.35
-16.64
-16.61
-14.98
-11.79
-7.39
-2.36
2.59
6.86
10.03
11.91
12.64
12.51
11.91
11.21
10.64
10.27
10.05
9.88
9.70
9.55
9.52
9.68
10.07
10.56
11.01
11.29
11.33
11.11
10.74
10.25
9.69
9.06
8.34
7.57
6.84
6.20
5.68
5.24
4.78
4.29
3.82
3.48
3.38
3.48
3.64
3.60
3.19
2.34
1.21
0.03
-0.91
-1.41
-1.49
-1.32
-1.17
-1.44
-2.40
-4.18
-6.68
-9.50
-11.98
-13.44
-13.26
-11.16
-7.35
-2.43
2.73
7.23
10.45
12.15
12.51
12.00
11.14
10.34
9.81
9.51
9.33
9.11
8.79
8.36
7.93
7.53
7.18
6.88
6.60
6.35
6.20
6.16
6.21
6.24
6.03
5.48
4.55
3.39
2.30
1.51
1.14
1.15
1.30
1.30
0.98
0.25
-0.83
-2.05
-3.25
-4.25
-4.97
-5.43
-5.75
-6.12
-6.79
-8.00
-9.82
-12.20
-14.80
-17.11
-18.60
-18.82
-17.58
-15.04
-11.60
-7.87
-4.42
-1.59
0.55
2.17
3.54
4.80
5.92
6.73
7.00
6.67
5.90
4.95
4.15
3.72
3.67
3.91
4.27
4.61
4.81
4.85
4.72
4.52
4.36
4.25
4.21
4.09
3.75
3.12
2.27
1.43
0.84
0.67
0.90
1.38
1.81
1.92
1.52
0.49
-1.13
-3.18
-5.38
-7.38
-8.87
-9.73
-10.13
-10.54
-11.49
-13.32
-15.98
-18.98
-21.51
-22.81
-22.43
-20.36
-17.04
-13.15
-9.29
-5.95
-3.37
-1.59
-0.55
-0.07
0.01
-0.15
-0.49
-1.02
-1.83
-2.92
-4.18
-5.37
-6.17
-6.31
-5.67
-4.30
-2.38
-0.17
2.08
4.06
5.53
6.38
6.56
6.24
5.65
5.06
4.66
4.52
4.60
4.76
4.83
4.62
4.02
2.99
1.63
0.11
-1.35
-2.63
-3.73
-4.77
-5.90
-7.12
-8.39
-9.64
-10.87
-12.28
-14.04
-16.17
-18.40
-20.15
-20.75
-19.78
-17.25
-13.57
-9.44
-5.42
-1.84
1.21
3.79
5.88
7.38
8.22
8.39
8.02
7.37
6.66
6.08
5.73
5.63
5.76
6.11
6.56
6.99
7.33
7.55
7.74
8.06
8.59
9.27
9.86
10.04
9.60
8.52
7.05
5.57
4.48
3.99
4.08
4.54
5.05
5.33
5.25
4.81
4.12
3.22
2.17
1.00
-0.25
-1.46
-2.50
-3.33
-4.10
-5.08
-6.60
-8.78
-11.34
-13.64
-14.85
-14.33
-11.91
-7.98
-3.35
1.05
4.59
7.04
8.59
9.58
10.30
10.80
10.97
10.67
9.89
8.86
7.85
7.11
6.71
6.51
6.33
6.04
5.66
5.35
5.31
5.60
6.19
6.86
7.31
7.27
6.56
5.23
3.50
1.72
0.24
-0.71
-1.19
-1.43
-1.71
-2.22
-2.96
-3.73
-4.29
-4.51
-4.45
-4.37
-4.58
-5.41
-7.00
-9.29
-12.03
-14.78
-16.98
-18.08
-17.60
-15.33
-11.43
-6.46
-1.24
3.30
6.54
8.30
8.86
8.82
8.80
9.14
9.80
10.43
10.55
9.88
8.45
6.67
5.16
4.43
4.75
5.96
7.58
9.07
10.06
10.39
10.23
9.82
9.31
8.69
7.88
6.78
5.45
4.07
2.83
1.89
1.25
0.70
-0.01
-1.04
-2.39
-3.87
-5.26
-6.48
-7.67
-9.11
-11.11
-13.61
-16.21
-18.15
-18.62
-17.10
-13.67
-8.92
-3.79
0.79
4.26
6.44
7.58
8.06
8.24
8.30
8.25
8.04
7.65
7.15
6.66
6.34
6.25
6.34
6.51
6.65
6.69
6.72
6.83
7.17
7.74
8.41
8.92
8.97
8.41
7.28
5.84
4.46
3.45
2.92
2.70
2.51
2.04
1.16
-0.07
-1.45
-2.74
-3.74
-4.45
-4.93
-5.31
-5.80
-6.59
-7.85
-9.65
-11.86
-14.11
-15.87
-16.52
-15.64
-13.16
-9.36
-4.80
-0.15
4.02
7.35
9.67
11.04
11.59
11.49
10.97
10.18
9.26
8.35
7.52
6.87
6.45
6.25
6.24
6.35
6.46
6.51
6.48
6.34
6.13
5.85
5.51
5.11
4.68
4.20
3.73
3.26
2.75
2.18
1.49
0.68
-0.19
-1.03
-1.77
-2.36
-2.89
-3.48
-4.20
-5.09
-6.06
-6.96
-7.69
-8.20
-8.60
-9.10
-9.96
-11.48
-13.93
-17.46
-21.95
-26.89
-31.42
-34.56
-35.50
-33.97
-30.41
-25.77
-21.15
-17.48
-15.16
-14.00
-13.43
-12.75
-11.41
-9.18
-6.15
-2.61
1.02
4.40
7.29
9.59
11.31
12.49
13.26
13.81
14.28
14.85
15.54
16.29
16.90
17.23
17.18
16.80
16.22
15.56
14.85
14.09
13.16
12.07
10.84
9.55
8.26
7.03
5.86
4.79
3.79
2.80
1.73
0.42
-1.21
-3.08
-5.01
-6.74
-8.08
-9.02
-9.67
-10.21
-10.80
-11.56
-12.55
-13.90
-15.67
-17.82
-20.07
-21.86
-22.56
-21.68
-19.07
-15.02
-10.26
-5.58
-1.68
1.10
2.84
3.86
4.60
5.37
6.21
6.95
7.36
7.27
6.74
5.95
5.17
4.62
4.39
4.45
4.75
5.25
5.90
6.66
7.45
8.11
8.50
8.54
8.30
7.95
7.71
7.72
8.01
8.42
8.70
8.71
8.43
8.00
7.62
7.37
7.22
6.99
6.47
5.54
4.26
2.80
1.35
0.01
-1.20
-2.33
-3.41
-4.47
-5.51
-6.65
-8.06
-9.88
-12.11
-14.45
-16.34
-17.12
-16.29
-13.73
-9.83
-5.28
-0.84
2.93
5.82
7.90
9.39
10.49
11.31
11.81
11.95
11.69
11.02
10.08
9.01
8.05
7.43
7.31
7.75
8.67
9.83
10.99
11.95
12.55
12.72
12.48
11.87
10.99
9.99
8.95
7.95
7.01
6.15
5.39
4.80
4.36
4.03
3.60
2.84
1.61
-0.05
-1.89
-3.52
-4.70
-5.38
-5.74
-6.16
-6.97
-8.36
-10.33
-12.69
-15.08
-17.12
-18.38
-18.50
-17.27
-14.65
-10.85
-6.36
-1.76
2.32
5.37
7.22
7.96
7.92
7.53
7.04
6.59
6.15
5.65
5.11
4.58
4.16
3.84
3.54
3.08
2.41
1.59
0.84
0.38
0.32
0.58
0.93
1.13
0.99
0.58
0.08
-0.14
0.24
1.35
3.09
5.09
6.84
7.90
8.09
7.49
6.40
5.12
3.79
2.40
0.81
-1.14
-3.44
-6.00
-8.66
-11.22
-13.49
-15.22
-16.10
-15.84
-14.26
-11.44
-7.78
-3.85
-0.16
2.99
5.58
7.74
9.50
10.77
11.31
10.93
9.66
7.80
5.78
4.00
2.66
1.74
1.16
0.87
0.91
1.36
2.15
3.09
3.93
4.41
4.47
4.23
3.84
3.44
3.08
2.64
2.05
1.25
0.29
-0.72
-1.66
-2.47
-3.21
-4.00
-4.95
-6.04
-7.19
-8.20
-8.91
-9.34
-9.73
-10.45
-11.90
-14.21
-17.14
-20.12
-22.40
-23.31
-22.59
-20.38
-17.19
-13.67
-10.32
-7.39
-4.91
-2.72
-0.75
0.96
2.24
2.92
2.94
2.47
1.73
0.99
0.46
0.18
0.17
0.44
0.94
1.65
2.45
3.18
3.70
3.95
4.02
4.05
4.14
4.24
4.18
3.76
2.89
1.75
0.67
-0.00
-0.10
0.27
0.81
1.19
1.15
0.63
-0.26
-1.35
-2.45
-3.40
-4.16
-4.70
-5.15
-5.75
-6.76
-8.38
-10.61
-13.10
-15.30
-16.52
-16.21
-14.12
-10.44
-5.75
-0.84
3.48
6.72
8.68
9.57
9.77
9.66
9.48
9.32
9.13
8.88
8.59
8.25
7.85
7.34
6.65
5.87
5.17
4.81
4.98
5.65
6.56
7.36
7.74
7.56
6.96
6.15
5.38
4.79
4.38
4.07
3.77
3.36
2.79
2.02
1.07
0.01
-0.99
-1.76
-2.19
-2.31
-2.33
-2.59
-3.47
-5.16
-7.53
-10.09
-12.09
-12.73
-11.55
-8.55
-4.26
0.39
4.48
7.37
8.90
9.39
9.38
9.35
9.52
9.78
9.86
9.53
8.68
7.45
6.12
4.95
4.17
3.87
4.02
4.53
5.29
6.08
6.69
6.92
6.63
5.82
4.62
3.24
1.94
0.92
0.22
-0.21
-0.55
-1.03
-1.78
-2.84
-4.06
-5.21
-6.09
-6.63
-6.94
-7.33
-8.09
-9.41
-11.31
-13.55
-15.71
-17.26
-17.69
-16.65
-14.10
-10.30
-5.84
-1.46
2.22
4.77
6.16
6.66
6.65
6.46
6.28
6.09
5.84
5.53
5.22
5.06
5.18
5.60
6.18
6.73
7.08
7.20
7.17
7.12
7.15
7.24
7.26
7.10
6.66
5.91
4.93
3.82
2.70
1.72
1.01
0.58
0.38
0.21
-0.18
-0.91
-1.96
-3.08
-3.97
-4.46
-4.66
-4.95
-5.85
-7.67
-10.35
-13.37
-15.88
-17.03
-16.28
-13.60
-9.47
-4.76
-0.34
3.12
5.33
6.44
6.82
6.97
7.24
7.69
8.20
8.52
8.47
8.05
7.45
6.90
6.58
6.53
6.70
6.98
7.30
7.62
7.95
8.19
8.27
8.14
7.79
7.32
6.80
6.23
5.53
4.67
3.64
2.52
1.51
0.69
0.15
-0.14
-0.28
-0.36
-0.48
-0.76
-1.26
-2.03
-3.02
-4.09
-5.05
-5.81
-6.37
-6.95
-7.81
-9.22
-11.19
-13.49
-15.54
-16.71
-16.46
-14.59
-11.37
-7.36
-3.26
0.36
3.20
5.20
6.43
7.04
7.14
6.89
6.46
6.02
5.67
5.42
5.22
4.98
4.69
4.40
4.27
4.42
4.95
5.83
6.93
7.98
8.68
8.78
8.15
6.92
5.43
4.09
3.28
3.09
3.35
3.74
3.92
3.74
3.25
2.62
2.03
1.56
1.15
0.75
0.32
-0.14
-0.57
-0.97
-1.40
-1.93
-2.62
-3.41
-4.17
-4.79
-5.24
-5.71
-6.51
-8.02
-10.42
-13.52
-16.72
-19.09
-19.80
-18.38
-15.00
-10.49
-5.92
-2.17
0.34
1.78
2.67
3.45
4.31
5.10
5.50
5.34
4.74
4.02
3.60
3.71
4.32
5.17
5.93
6.34
6.39
6.19
5.91
5.72
5.63
5.59
5.51
5.28
4.86
4.29
3.59
2.86
2.16
1.54
1.01
0.60
0.30
0.12
-0.02
-0.23
-0.63
-1.32
-2.28
-3.36
-4.41
-5.28
-5.95
-6.55
-7.25
-8.14
-9.17
-10.16
-10.93
-11.43
-11.79
-12.29
-13.17
-14.54
-16.22
-17.84
-18.90
-19.00
-17.95
-15.83
-12.98
-9.87
-6.95
-4.59
-2.87
-1.67
-0.73
0.17
1.13
2.04
2.71
2.97
2.76
2.26
1.70
1.29
1.14
1.19
1.33
1.51
1.79
2.23
2.89
3.66
4.32
4.65
4.48
3.86
3.04
2.34
2.04
2.24
2.83
3.51
4.05
4.23
4.05
3.66
3.23
2.89
2.68
2.44
2.00
1.22
0.12
-1.11
-2.17
-2.82
-2.95
-2.68
-2.34
-2.24
-2.69
-3.78
-5.40
-7.32
-9.18
-10.49
-10.88
-10.02
-7.83
-4.60
-0.87
2.67
5.40
7.00
7.52
7.29
6.77
6.35
6.16
6.17
6.17
5.94
5.40
4.61
3.71
2.93
2.41
2.21
2.26
2.40
2.51
2.51
2.41
2.29
2.25
2.28
2.26
2.06
1.51
0.65
-0.34
-1.14
-1.49
-1.33
-0.83
-0.32
-0.11
-0.40
-1.14
-2.14
-3.14
-3.92
-4.34
-4.34
-3.98
-3.41
-2.88
-2.71
-3.17
-4.32
-5.92
-7.51
-8.47
-8.34
-6.94
-4.40
-1.17
2.20
5.21
7.48
8.83
9.29
9.01
8.25
7.34
6.53
6.00
5.81
5.88
6.10
6.35
6.52
6.56
6.44
6.15
5.77
5.33
4.93
4.63
4.45
4.33
4.20
3.93
3.45
2.78
1.97
1.17
0.53
0.15
0.05
0.17
0.30
0.24
-0.14
-0.86
-1.81
-2.90
-4.08
-5.44
-7.08
-9.00
-10.92
-12.31
-12.60
-11.46
-9.05
-5.99
-3.07
-0.95
0.12
0.38
0.31
0.38
0.84
1.59
2.34
2.80
2.78
2.33
1.57
0.71
-0.10
-0.76
-1.23
-1.48
-1.53
-1.36
-1.00
-0.48
0.14
0.74
1.21
1.41
1.26
0.80
0.15
-0.47
-0.94
-1.27
-1.57
-2.04
-2.76
-3.64
-4.42
-4.84
-4.79
-4.39
-3.91
-3.75
-4.18
-5.29
-6.93
-8.70
-10.04
-10.34
-9.24
-6.69
-3.12
0.73
4.05
6.24
7.15
7.04
6.37
5.61
5.00
4.58
4.29
4.03
3.79
3.62
3.50
3.43
3.34
3.19
3.00
2.88
2.91
3.15
3.63
4.20
4.75
5.14
5.19
4.83
4.08
3.03
1.88
0.86
0.19
-0.01
0.17
0.53
0.80
0.79
0.40
-0.24
-0.95
-1.52
-1.75
-1.63
-1.25
-0.90
-0.98
-1.87
-3.74
-6.38
-9.14
-11.15
-11.67
-10.37
-7.55
-4.02
-0.66
1.89
3.43
4.18
4.43
4.44
4.30
4.01
3.62
3.32
3.28
3.63
4.35
5.22
5.96
6.34
6.25
5.82
5.31
4.97
4.97
5.24
5.49
5.40
4.81
3.77
2.65
1.81
1.50
1.69
2.06
2.24
2.03
1.39
0.57
-0.12
-0.47
-0.44
-0.17
0.11
0.15
-0.18
-0.91
-1.92
-3.05
-4.12
-4.96
-5.50
-5.76
-5.89
-6.22
-7.13
-8.82
-11.24
-13.93
-16.13
-17.14
-16.59
-14.61
-11.75
-8.73
-6.09
-4.11
-2.76
-1.94
-1.56
-1.62
-2.07
-2.81
-3.63
-4.39
-5.09
-5.78
-6.51
-7.05
-6.95
-5.74
-3.17
0.51
4.60
8.25
10.83
12.05
12.12
11.47
10.47
9.36
8.20
7.00
5.86
5.02
4.70
4.98
5.72
6.46
6.69
6.00
4.35
2.10
-0.17
-1.90
-2.80
-3.01
-2.97
-3.09
-3.66
-4.72
-6.08
-7.51
-8.79
-9.76
-10.32
-10.38
-9.95
-9.22
-8.52
-8.32
-9.02
-10.72
-13.13
-15.57
-17.20
-17.32
-15.69
-12.56
-8.65
-4.87
-1.90
-0.08
0.73
0.93
0.96
1.10
1.42
1.82
2.19
2.48
2.73
3.03
3.42
3.80
4.10
4.22
4.25
4.39
4.84
5.73
6.97
8.26
9.26
9.72
9.50
8.70
7.59
6.43
5.53
5.09
5.17
5.69
6.45
7.14
7.51
7.45
6.96
6.23
5.47
4.82
4.33
3.92
3.45
2.90
2.27
1.64
1.09
0.59
0.09
-0.46
-1.08
-1.74
-2.43
-3.25
-4.39
-5.99
-8.03
-10.21
-11.92
-12.48
-11.35
-8.47
-4.27
0.44
4.73
7.88
9.59
9.99
9.48
8.55
7.55
6.65
5.87
5.17
4.56
4.09
3.81
3.75
3.85
3.95
3.93
3.73
3.37
3.01
2.87
3.12
3.78
4.72
5.61
6.18
6.23
5.76
4.98
4.14
3.45
3.00
2.72
2.54
2.37
2.14
1.81
1.36
0.73
-0.12
-1.12
-2.18
-3.11
-3.70
-3.91
-3.86
-3.88
-4.46
-5.92
-8.34
-11.37
-14.29
-16.21
-16.43
-14.62
-11.05
-6.44
-1.71
2.29
5.02
6.37
6.60
6.13
5.38
4.62
3.97
3.43
2.99
2.65
2.47
2.48
2.70
3.02
3.33
3.52
3.52
3.39
3.31
3.44
3.86
4.50
5.10
5.36
5.09
4.29
3.20
2.20
1.55
1.33
1.45
1.68
1.85
1.85
1.64
1.24
0.63
-0.15
-1.01
-1.84
-2.53
-3.06
-3.51
-4.01
-4.72
-5.76
-7.17
-8.88
-10.71
-12.31
-13.24
-13.13
-11.81
-9.38
-6.28
-3.04
-0.15
2.09
3.61
4.49
4.79
4.58
3.94
3.06
2.25
1.79
1.86
2.42
3.23
3.96
4.38
4.41
4.16
3.91
3.89
4.21
4.80
5.39
5.72
5.65
5.19
4.55
3.98
3.63
3.55
3.62
3.67
3.61
3.41
3.11
2.79
2.43
1.95
1.25
0.24
-1.02
-2.38
-3.65
-4.70
-5.52
-6.28
-7.12
-8.15
-9.40
-10.83
-12.41
-14.22
-16.34
-18.73
-21.18
-23.20
-24.28
-24.01
-22.29
-19.44
-16.05
-12.87
-10.54
-9.42
-9.42
-10.09
-10.69
-10.49
-9.09
-6.53
-3.22
0.23
3.33
5.82
7.66
8.93
9.77
10.23
10.47
10.64
10.91
11.39
12.00
12.54
12.78
12.56
11.89
10.92
9.78
8.58
7.45
6.46
5.69
5.15
4.71
4.20
3.42
2.27
0.83
-0.68
-2.04
-3.09
-3.88
-4.56
-5.30
-6.22
-7.35
-8.61
-9.84
-10.93
-11.76
-12.40
-13.01
-13.88
-15.30
-17.32
-19.65
-21.71
-22.79
-22.27
-20.00
-16.25
-11.68
-7.10
-3.13
-0.15
1.80
2.95
3.57
3.91
4.10
4.21
4.28
4.44
4.79
5.42
6.30
7.22
7.90
8.16
7.98
7.56
7.20
7.14
7.48
8.13
8.87
9.55
10.03
10.21
10.05
9.55
8.80
8.01
7.40
7.14
7.27
7.63
7.98
8.09
7.82
7.16
6.21
5.07
3.84
2.59
1.37
0.27
-0.60
-1.16
-1.45
-1.67
-2.15
-3.25
-5.17
-7.71
-10.27
-11.97
-12.03
-10.06
-6.29
-1.53
3.22
7.09
9.64
10.95
11.36
11.32
11.14
10.84
10.40
9.79
9.09
8.51
8.19
8.13
8.18
8.08
7.67
7.00
6.28
5.84
5.89
6.44
7.28
8.15
8.72
8.84
8.48
7.69
6.64
5.52
4.51
3.74
3.27
2.99
2.73
2.28
1.42
0.08
-1.70
-3.73
-5.74
-7.48
-8.75
-9.58
-10.23
-11.05
-12.31
-14.06
-16.02
-17.68
-18.55
-18.29
-16.86
-14.47
-11.45
-8.14
-4.82
-1.69
1.07
3.33
5.03
6.17
6.80
7.00
6.86
6.43
5.83
5.13
4.46
3.95
3.69
3.73
4.08
4.65
5.36
6.13
6.90
7.66
8.40
8.99
9.24
8.96
8.04
6.61
5.03
3.75
3.09
3.06
3.33
3.45
3.11
2.23
1.11
0.04
-0.75
-1.27
-1.77
-2.45
-3.38
-4.52
-5.78
-7.20
-8.94
-11.07
-13.43
-15.55
-16.75
-16.50
-14.64
-11.46
-7.59
-3.70
-0.28
2.45
4.52
6.11
7.33
8.25
8.87
9.06
8.80
8.15
7.32
6.65
6.42
6.73
7.38
8.04
8.34
8.17
7.71
7.31
7.27
7.63
8.15
8.45
8.22
7.44
6.39
5.41
4.77
4.51
4.43
4.27
3.83
3.03
1.94
0.62
-0.89
-2.57
-4.37
-6.17
-7.80
-9.10
-10.06
-10.75
-11.44
-12.46
-14.07
-16.36
-19.18
-22.08
-24.43
-25.62
-25.21
-23.17
-19.85
-15.87
-11.91
-8.46
-5.66
-3.45
-1.64
-0.05
1.31
2.34
2.93
2.99
2.59
1.88
1.11
0.51
0.26
0.44
1.07
2.05
3.26
4.57
5.76
6.65
7.04
6.80
5.93
4.64
3.23
2.10
1.51
1.48
1.84
2.30
2.59
2.62
2.46
2.26
2.10
1.95
1.65
1.07
0.15
-1.00
-2.20
-3.33
-4.34
-5.24
-6.15
-7.17
-8.40
-10.02
-12.10
-14.56
-17.15
-19.33
-20.47
-20.12
-18.04
-14.42
-9.72
-4.53
0.56
5.03
8.52
10.82
11.92
12.05
11.55
10.80
10.08
9.49
8.99
8.57
8.31
8.34
8.81
9.67
10.69
11.57
12.08
12.17
11.97
11.64
11.30
10.94
10.50
9.94
9.30
8.64
7.99
7.33
6.56
5.70
4.82
4.07
3.58
3.29
2.99
2.49
1.66
0.60
-0.43
-1.21
-1.68
-1.99
-2.48
-3.49
-5.21
-7.62
-10.44
-13.15
-15.16
-15.92
-15.07
-12.60
-8.86
-4.44
0.02
4.02
7.32
9.89
11.80
13.07
13.67
13.60
12.92
11.89
10.82
9.93
9.32
8.96
8.73
8.60
8.58
8.72
9.05
9.50
9.96
10.29
10.37
10.08
9.39
8.27
6.83
5.28
3.86
2.83
2.31
2.19
2.19
1.97
1.22
-0.12
-1.92
-3.88
-5.64
-6.91
-7.60
-7.83
-7.93
-8.33
-9.41
-11.38
-14.10
-17.06
-19.51
-20.64
-19.87
-17.10
-12.76
-7.60
-2.55
1.64
4.60
6.26
6.88
6.90
6.70
6.58
6.63
6.76
6.83
6.74
6.50
6.25
6.10
6.09
6.16
6.20
6.19
6.23
6.51
7.12
7.98
8.77
9.15
8.89
7.99
6.69
5.37
4.32
3.71
3.50
3.51
3.48
3.24
2.64
1.68
0.44
-0.93
-2.22
-3.29
-4.06
-4.55
-4.92
-5.42
-6.33
-7.93
-10.31
-13.29
-16.42
-19.02
-20.37
-19.98
-17.70
-13.80
-8.93
-3.87
0.62
4.03
6.15
7.12
7.20
6.77
6.13
5.45
4.85
4.46
4.39
4.74
5.48
6.40
7.27
7.80
7.95
7.86
7.77
7.90
8.32
8.87
9.30
9.40
9.04
8.26
7.21
6.11
5.15
4.41
3.89
3.51
3.16
2.78
2.41
2.03
1.61
1.01
0.06
-1.29
-2.89
-4.45
-5.69
-6.50
-7.11
-7.84
-8.96
-10.56
-12.47
-14.54
-16.70
-18.99
-21.42
-23.71
-25.35
-25.69
-24.32
-21.28
-17.12
-12.66
-8.62
-5.44
-3.14
-1.55
-0.55
-0.13
-0.38
-1.47
-3.31
-5.52
-7.46
-8.36
-7.62
-5.06
-1.06
3.56
7.79
10.87
12.52
12.95
12.69
12.28
12.04
11.96
11.83
11.42
10.66
9.65
8.61
7.77
7.18
6.74
6.27
5.51
4.39
3.00
1.55
0.29
-0.70
-1.55
-2.49
-3.74
-5.34
-7.15
-8.92
-10.43
-11.57
-12.40
-13.06
-13.71
-14.48
-15.48
-16.77
-18.40
-20.23
-21.99
-23.24
-23.57
-22.66
-20.51
-17.34
-13.51
-9.40
-5.30
-1.47
1.85
4.47
6.24
7.14
7.34
7.13
6.81
6.60
6.57
6.70
6.95
7.28
7.69
8.18
8.74
9.36
10.07
10.86
11.70
12.46
12.96
13.06
12.80
12.28
11.77
11.46
11.40
11.50
11.57
11.43
11.03
10.41
9.65
8.86
8.09
7.35
6.64
5.90
5.07
4.10
2.94
1.58
0.13
-1.30
-2.47
-3.27
-3.69
-3.95
-4.43
-5.54
-7.48
-10.15
-13.02
-15.28
-16.10
-14.98
-11.89
-7.38
-2.36
2.26
5.81
8.05
9.18
9.59
9.67
9.67
9.59
9.35
8.88
8.23
7.51
6.87
6.33
5.88
5.49
5.14
4.91
4.89
5.09
5.46
5.84
6.07
6.05
5.71
5.09
4.27
3.38
2.57
2.01
1.75
1.73
1.72
1.48
0.88
-0.03
-1.07
-2.00
-2.66
-3.11
-3.57
-4.38
-5.82
-8.02
-10.84
-13.91
-16.61
-18.28
-18.34
-16.50
-12.97
-8.32
-3.39
1.01
4.37
6.58
7.80
8.39
8.59
8.54
8.22
7.60
6.69
5.61
4.54
3.68
3.14
2.91
2.90
3.00
3.09
3.15
3.25
3.49
3.96
4.68
5.53
6.36
6.99
7.26
7.18
6.78
6.13
5.29
4.23
2.90
1.31
-0.48
-2.30
-3.93
-5.20
-6.06
-6.59
-6.97
-7.44
-8.26
-9.62
-11.58
-13.94
-16.22
-17.77
-17.98
-16.56
-13.72
-10.04
-6.29
-3.05
-0.57
1.20
2.49
3.42
4.08
4.45
4.55
4.47
4.31
4.12
3.93
3.78
3.72
3.91
4.51
5.54
6.95
8.59
10.23
11.75
13.02
13.88
14.20
13.83
12.74
11.11
9.21
7.37
5.82
4.61
3.65
2.81
1.93
0.87
-0.42
-2.03
-3.91
-5.97
-8.03
-9.92
-11.59
-13.24
-15.13
-17.41
-20.00
-22.46
-24.21
-24.74
-23.85
-21.72
-18.81
-15.59
-12.43
-9.52
-6.88
-4.59
-2.69
-1.23
-0.26
0.28
0.51
0.49
0.26
-0.19
-0.85
-1.61
-2.32
-2.77
-2.77
-2.30
-1.45
-0.42
0.55
1.25
1.56
1.46
1.00
0.28
-0.62
-1.54
-2.35
-2.91
-3.12
-2.91
-2.31
-1.46
-0.55
0.16
0.44
0.18
-0.64
-1.85
-3.23
-4.58
-5.75
-6.73
-7.67
-8.77
-10.24
-12.18
-14.51
-16.91
-18.85
-19.67
-18.84
-16.13
-11.76
-6.43
-1.02
3.64
7.06
9.23
10.46
11.12
11.47
11.55
11.27
10.64
9.82
9.05
8.56
8.37
8.35
8.34
8.26
8.23
8.47
9.10
10.06
11.13
12.02
12.55
12.67
12.38
11.73
10.73
9.47
8.12
6.97
6.25
6.09
6.39
6.81
6.95
6.49
5.35
3.68
1.83
0.19
-0.89
-1.34
-1.27
-1.03
-1.10
-1.91
-3.70
-6.40
-9.52
-12.32
-13.93
-13.68
-11.36
-7.34
-2.43
2.38
6.30
8.99
10.53
11.30
11.70
11.89
11.81
11.34
10.40
9.11
7.75
6.60
5.85
5.53
5.49
5.60
5.78
6.07
6.55
7.26
8.06
8.76
9.10
8.86
8.01
6.63
4.95
3.22
1.67
0.42
-0.47
-1.12
-1.69
-2.33
-3.15
-4.13
-5.15
-6.08
-6.75
-7.08
-7.00
-6.59
-6.07
-5.83
-6.30
-7.80
-10.30
-13.32
-16.04
-17.56
-17.27
-15.08
-11.43
-7.08
-2.78
0.98
4.01
6.33
8.03
9.13
9.57
9.31
8.38
7.02
5.58
4.46
3.93
4.02
4.48
4.93
5.10
4.93
4.63
4.56
4.93
5.69
6.53
7.03
6.95
6.32
5.38
4.44
3.67
3.06
2.49
1.84
1.06
0.20
-0.72
-1.67
-2.66
-3.72
-4.85
-6.02
-7.19
-8.29
-9.18
-9.80
-10.13
-10.30
-10.70
-11.68
-13.48
-15.98
-18.68
-20.78
-21.57
-20.62
-17.99
-14.18
-9.85
-5.69
-2.12
0.71
2.84
4.46
5.67
6.53
6.98
7.05
6.80
6.41
6.06
5.83
5.69
5.55
5.31
5.02
4.84
4.90
5.26
5.82
6.26
6.37
6.02
5.30
4.43
3.59
2.87
2.20
1.41
0.41
-0.76
-1.97
-3.00
-3.71
-4.12
-4.40
-4.77
-5.42
-6.35
-7.45
-8.58
-9.60
-10.48
-11.22
-11.85
-12.37
-12.89
-13.58
-14.67
-16.31
-18.36
-20.38
-21.68
-21.58
-19.73
-16.26
-11.71
-6.88
-2.45
1.15
3.77
5.46
6.42
6.80
6.78
6.56
6.34
6.28
6.48
6.87
7.31
7.63
7.73
7.69
7.67
7.87
8.45
9.37
10.49
11.54
12.25
12.42
12.00
11.06
9.81
8.52
7.40
6.58
6.08
5.84
5.77
5.83
5.96
6.05
5.93
5.37
4.23
2.53
0.54
-1.33
-2.71
-3.43
-3.61
-3.64
-3.99
-4.99
-6.78
-9.10
-11.45
-13.22
-13.83
-12.95
-10.59
-7.08
-3.04
0.85
4.05
6.37
7.90
8.97
9.88
10.77
11.53
11.87
11.50
10.34
8.56
6.64
5.13
4.44
4.65
5.46
6.35
6.86
6.89
6.65
6.55
6.88
7.57
8.23
8.42
7.91
6.84
5.58
4.52
3.87
3.49
3.14
2.59
1.77
0.76
-0.28
-1.30
-2.26
-3.16
-4.03
-4.87
-5.71
-6.66
-7.87
-9.48
-11.54
-13.88
-16.15
-17.88
-18.58
-17.91
-15.84
-12.57
-8.58
-4.42
-0.56
2.64
5.01
6.53
7.24
7.25
6.75
5.93
5.02
4.20
3.60
3.28
3.26
3.49
3.90
4.35
4.73
4.95
5.05
5.13
5.33
5.72
6.16
6.37
6.06
5.07
3.55
1.89
0.57
-0.05
0.01
0.44
0.80
0.68
-0.04
-1.22
-2.61
-3.97
-5.17
-6.22
-7.21
-8.27
-9.51
-11.00
-12.80
-14.84
-16.83
-18.35
-18.89
-18.04
-15.75
-12.37
-8.49
-4.80
-1.76
0.53
2.20
3.52
4.72
5.78
6.53
6.75
6.32
5.36
4.14
2.97
2.07
1.47
1.06
0.78
0.63
0.70
1.09
1.73
2.41
2.87
2.89
2.46
1.76
1.01
0.39
-0.05
-0.37
-0.67
-1.00
-1.44
-2.03
-2.83
-3.92
-5.27
-6.76
-8.20
-9.38
-10.22
-10.77
-11.18
-11.69
-12.49
-13.72
-15.35
-17.20
-18.87
-19.89
-19.80
-18.29
-15.46
-11.65
-7.41
-3.29
0.34
3.33
5.69
7.51
8.85
9.69
10.05
9.98
9.58
9.01
8.42
7.89
7.49
7.20
7.05
7.11
7.43
8.07
9.01
10.11
11.11
11.75
11.81
11.23
10.14
8.78
7.48
6.46
5.76
5.35
5.02
4.61
4.03
3.30
2.48
1.66
0.84
0.01
-0.83
-1.68
-2.48
-3.19
-3.94
-4.92
-6.37
-8.38
-10.77
-13.03
-14.50
-14.54
-12.81
-9.42
-4.87
0.05
4.56
8.11
10.45
11.65
12.00
11.84
11.38
10.80
10.11
9.38
8.71
8.23
8.02
8.08
8.24
8.27
7.98
7.32
6.48
5.81
5.64
6.12
7.03
7.88
8.14
7.52
6.12
4.44
3.00
2.16
1.92
1.91
1.69
0.96
-0.34
-1.96
-3.56
-4.83
-5.62
-5.98
-6.15
-6.49
-7.37
-8.96
-11.09
-13.27
-14.83
-15.20
-14.12
-11.69
-8.32
-4.52
-0.76
2.62
5.34
7.21
8.15
8.18
7.59
6.75
5.99
5.54
5.35
5.26
5.08
4.71
4.22
3.79
3.57
3.67
4.10
4.79
5.66
6.62
7.53
8.22
8.51
8.26
7.50
6.42
5.28
4.35
3.76
3.41
3.13
2.71
2.02
1.03
-0.20
-1.64
-3.22
-4.82
-6.36
-7.74
-8.97
-10.21
-11.70
-13.60
-15.86
-18.06
-19.64
-20.00
-18.79
-16.10
-12.35
-8.17
-4.18
-0.84
1.65
3.27
4.14
4.43
4.31
3.96
3.45
2.81
2.06
1.19
0.24
-0.69
-1.47
-1.96
-2.01
-1.58
-0.67
0.60
2.04
3.34
4.25
4.50
4.06
3.08
1.83
0.62
-0.34
-1.00
-1.41
-1.70
-1.95
-2.20
-2.44
-2.67
-2.98
-3.49
-4.31
-5.41
-6.64
-7.75
-8.52
-8.97
-9.34
-9.96
-11.12
-12.72
-14.33
-15.28
-14.95
-13.02
-9.69
-5.54
-1.33
2.23
4.78
6.29
6.99
7.23
7.27
7.24
7.12
6.87
6.50
6.18
6.11
6.43
7.14
8.01
8.72
9.09
9.07
8.85
8.69
8.69
8.78
8.71
8.19
7.16
5.74
4.29
3.21
2.71
2.72
2.97
3.11
2.90
2.36
1.67
1.06
0.70
0.49
0.24
-0.21
-0.96
-1.95
-3.11
-4.47
-6.07
-7.87
-9.63
-10.77
-10.69
-8.97
-5.72
-1.60
2.48
5.69
7.61
8.37
8.49
8.46
8.58
8.82
8.93
8.67
7.92
6.80
5.59
4.57
3.90
3.61
3.65
3.86
4.19
4.61
5.08
5.57
5.95
6.06
5.73
4.93
3.73
2.45
1.38
0.80
0.76
1.08
1.40
1.41
0.89
-0.10
-1.38
-2.73
-4.01
-5.19
-6.33
-7.49
-8.70
-9.97
-11.25
-12.41
-13.28
-13.56
-13.02
-11.57
-9.30
-6.54
-3.68
-1.08
1.03
2.61
3.74
4.47
4.81
4.75
4.26
3.43
2.47
1.63
1.15
1.12
1.50
2.14
2.84
3.47
4.03
4.59
5.25
6.07
6.97
7.77
8.26
8.20
7.55
6.44
5.15
4.04
3.36
3.12
3.16
3.21
3.02
2.50
1.72
0.82
-0.06
-0.91
-1.77
-2.72
-3.77
-4.86
-5.93
-7.00
-8.20
-9.68
-11.54
-13.64
-15.57
-16.77
-16.72
-15.16
-12.25
-8.52
-4.70
-1.46
0.81
2.09
2.65
2.87
2.99
3.09
3.07
2.72
1.98
0.97
-0.04
-0.70
-0.79
-0.33
0.52
1.48
2.31
2.96
3.45
3.85
4.16
4.28
4.05
3.39
2.37
1.21
0.21
-0.39
-0.56
-0.40
-0.18
-0.16
-0.47
-1.17
-2.14
-3.22
-4.24
-5.07
-5.66
-6.07
-6.48
-7.11
-8.23
-9.99
-12.36
-15.03
-17.47
-19.11
-19.47
-18.38
-16.06
-13.01
-9.82
-7.00
-4.77
-3.13
-1.93
-1.06
-0.50
-0.33
-0.62
-1.30
-2.20
-3.00
-3.38
-3.22
-2.58
-1.68
-0.81
-0.11
0.37
0.72
1.05
1.40
1.74
2.05
2.26
2.39
2.50
2.59
2.65
2.65
2.54
2.34
2.13
1.97
1.86
1.76
1.59
1.32
0.97
0.61
0.29
0.00
-0.32
-0.75
-1.32
-2.09
-3.07
-4.35
-5.91
-7.57
-8.97
-9.59
-8.94
-6.87
-3.64
0.13
3.67
6.37
7.96
8.48
8.20
7.46
6.55
5.65
4.89
4.30
3.92
3.79
3.92
4.30
4.86
5.41
5.76
5.76
5.44
5.01
4.73
4.79
5.15
5.49
5.45
4.83
3.69
2.44
1.58
1.36
1.75
2.40
2.82
2.71
2.06
1.15
0.39
0.06
0.16
0.43
0.44
-0.16
-1.45
-3.30
-5.36
-7.18
-8.34
-8.48
-7.38
-5.09
-1.91
1.65
4.91
7.36
8.73
9.03
8.60
7.82
6.98
6.27
5.76
5.43
5.28
5.25
5.24
5.20
5.08
4.93
4.83
4.82
4.87
4.97
5.03
5.11
5.29
5.62
6.08
6.50
6.62
6.25
5.36
4.12
2.79
1.63
0.71
0.01
-0.67
-1.50
-2.58
-3.96
-5.59
-7.36
-9.11
-10.56
-11.38
-11.31
-10.19
-8.08
-5.31
-2.36
0.32
2.35
3.60
4.14
4.13
3.84
3.54
3.38
3.47
3.76
4.08
4.31
4.31
4.12
3.91
3.82
3.97
4.31
4.67
4.82
4.66
4.16
3.48
2.76
2.11
1.58
1.15
0.70
0.13
-0.59
-1.47
-2.42
-3.34
-4.16
-4.83
-5.40
-5.86
-6.19
-6.36
-6.45
-6.65
-7.26
-8.46
-10.16
-11.92
-13.04
-12.85
-11.09
-8.04
-4.43
-1.18
1.01
1.83
1.42
0.24
-1.17
-2.39
-3.19
-3.64
-3.96
-4.39
-5.12
-6.10
-7.12
-7.83
-7.86
-6.93
-5.00
-2.24
0.98
4.20
7.04
9.24
10.70
11.45
11.57
11.16
10.33
9.24
8.18
7.48
7.34
7.81
8.63
9.35
9.51
8.88
7.51
5.71
3.89
2.32
1.12
0.22
-0.62
-1.63
-3.00
-4.85
-7.11
-9.49
-11.52
-12.63
-12.40
-10.72
-7.87
-4.48
-1.29
1.17
2.64
3.18
3.05
2.51
1.74
0.86
-0.11
-1.10
-2.05
-2.88
-3.48
-3.71
-3.49
-2.75
-1.52
0.06
1.81
3.55
5.19
6.71
8.06
9.10
9.65
9.47
8.50
6.93
5.15
3.60
2.62
2.25
2.33
2.59
2.72
2.61
2.23
1.56
0.67
-0.39
-1.55
-2.69
-3.75
-4.69
-5.49
-6.18
-6.76
-7.16
-7.49
-7.91
-8.75
-10.29
-12.60
-15.29
-17.65
-18.83
-18.22
-15.83
-12.24
-8.41
-5.24
-3.22
-2.31
-2.12
-2.20
-2.28
-2.43
-2.78
-3.46
-4.37
-5.23
-5.74
-5.72
-5.16
-4.22
-3.13
-2.05
-1.08
-0.26
0.45
1.02
1.46
1.77
1.94
2.01
2.04
2.03
2.03
1.98
1.83
1.53
1.08
0.58
0.23
0.20
0.60
1.33
2.13
2.70
2.87
2.61
2.08
1.54
1.16
0.99
0.96
0.84
0.44
-0.42
-1.81
-3.64
-5.64
-7.40
-8.43
-8.34
-6.99
-4.50
-1.31
2.04
5.04
7.28
8.56
8.81
8.15
6.85
5.32
3.98
3.19
3.11
3.64
4.50
5.39
6.06
6.42
6.57
6.67
6.86
7.22
7.65
7.95
7.86
7.24
6.09
4.65
3.31
2.45
2.28
2.65
3.25
3.64
3.57
3.09
2.45
1.97
1.80
1.90
2.12
2.29
2.33
2.16
1.66
0.66
-0.98
-3.13
-5.31
-6.79
-6.91
-5.40
-2.57
0.79
3.83
5.93
6.97
7.23
7.16
7.08
7.10
7.11
6.91
6.32
5.35
4.08
2.71
1.45
0.45
-0.21
-0.56
-0.72
-0.73
-0.62
-0.32
0.23
0.97
1.76
2.34
2.50
2.16
1.37
0.33
-0.73
-1.56
-2.03
-2.09
-1.82
-1.42
-1.14
-1.22
-1.78
-2.81
-4.17
-5.71
-7.22
-8.52
-9.39
-9.55
-8.80
-7.06
-4.51
-1.63
1.03
2.98
4.01
4.23
3.98
3.58
3.21
2.83
2.32
1.64
0.92
0.39
0.27
0.55
0.97
1.24
1.13
0.75
0.41
0.46
1.06
2.07
3.09
3.74
3.76
3.19
2.31
1.46
0.88
0.65
0.67
0.72
0.64
0.35
-0.12
-0.67
-1.19
-1.66
-2.11
-2.71
-3.67
-5.08
-6.95
-9.05
-10.97
-12.27
-12.58
-11.74
-9.86
-7.20
-4.10
-0.98
1.83
3.99
5.31
5.77
5.57
5.08
4.63
4.41
4.33
4.18
3.77
3.11
2.40
1.95
1.94
2.33
2.92
3.45
3.77
3.82
3.67
3.42
3.16
2.89
2.63
2.34
1.98
1.54
1.02
0.48
-0.07
-0.62
-1.22
-1.93
-2.80
-3.77
-4.76
-5.67
-6.43
-7.14
-7.95
-9.02
-10.52
-12.44
-14.60
-16.60
-17.95
-18.20
-17.17
-15.00
-12.18
-9.34
-6.98
-5.33
-4.30
-3.64
-3.14
-2.73
-2.49
-2.55
-2.90
-3.37
-3.75
-3.85
-3.62
-3.15
-2.55
-1.87
-1.15
-0.33
0.64
1.68
2.68
3.53
4.13
4.43
4.39
4.02
3.36
2.51
1.69
1.12
0.94
1.13
1.49
1.74
1.69
1.37
0.95
0.70
0.83
1.33
2.00
2.62
2.88
2.64
1.83
0.48
-1.28
-3.23
-5.05
-6.36
-6.80
-6.15
-4.42
-1.86
1.07
3.83
5.94
7.12
7.41
7.02
6.30
5.56
4.98
4.63
4.49
4.53
4.77
5.23
5.88
6.63
7.33
7.76
7.81
7.50
6.98
6.54
6.43
6.78
7.49
8.22
8.57
8.26
7.29
6.00
4.93
4.49
4.77
5.49
6.14
6.29
5.84
4.98
4.12
3.54
3.27
3.08
2.66
1.82
0.56
-0.97
-2.59
-4.21
-5.76
-7.19
-8.28
-8.70
-8.15
-6.49
-3.91
-0.90
1.95
4.07
5.18
5.36
4.90
4.18
3.48
2.85
2.25
1.64
1.09
0.83
1.10
1.93
3.09
4.12
4.57
4.30
3.52
2.71
2.36
2.68
3.52
4.49
5.15
5.29
4.93
4.22
3.39
2.61
1.99
1.62
1.59
1.90
2.40
2.87
3.03
2.75
2.09
1.26
0.52
0.01
-0.30
-0.55
-0.92
-1.55
-2.49
-3.77
-5.36
-7.16
-8.93
-10.33
-10.98
-10.64
-9.31
-7.27
-4.94
-2.72
-0.79
0.79
2.14
3.36
4.45
5.36
5.99
6.19
5.86
4.96
3.57
1.93
0.37
-0.71
-1.05
-0.63
0.31
1.46
2.47
3.13
3.41
3.33
2.96
2.34
1.48
0.44
-0.64
-1.58
-2.21
-2.47
-2.43
-2.23
-2.10
-2.19
-2.55
-3.17
-3.95
-4.79
-5.63
-6.43
-7.20
-7.98
-8.75
-9.41
-9.88
-10.11
-10.16
-10.22
-10.45
-10.92
-11.53
-12.10
-12.47
-12.69
-12.93
-13.40
-14.14
-14.89
-15.21
-14.64
-12.95
-10.28
-7.07
-3.91
-1.25
0.74
2.14
3.17
4.01
4.68
5.07
5.04
4.60
3.96
3.46
3.38
3.80
4.59
5.42
6.00
6.17
5.99
5.64
5.37
5.35
5.59
5.99
6.30
6.30
5.90
5.18
4.38
3.78
3.51
3.53
3.64
3.67
3.61
3.56
3.70
4.08
4.60
5.02
5.05
4.57
3.64
2.53
1.57
1.04
1.04
1.48
2.07
2.50
2.47
1.78
0.47
-1.30
-3.12
-4.54
-5.16
-4.69
-3.09
-0.54
2.57
5.75
8.43
10.16
10.66
9.92
8.31
6.36
4.70
3.73
3.54
3.84
4.25
4.37
4.07
3.46
2.74
2.14
1.75
1.57
1.52
1.53
1.54
1.49
1.31
0.96
0.47
-0.05
-0.44
-0.56
-0.39
-0.05
0.30
0.51
0.51
0.33
0.02
-0.38
-0.84
-1.31
-1.70
-1.91
-1.91
-1.72
-1.51
-1.47
-1.68
-2.11
-2.67
-3.30
-4.09
-5.15
-6.44
-7.75
-8.64
-8.66
-7.62
-5.67
-3.27
-1.03
0.64
1.61
1.99
2.04
1.98
1.95
1.93
1.89
1.72
1.35
0.77
0.06
-0.56
-0.86
-0.66
0.03
0.98
1.81
2.27
2.25
1.89
1.51
1.30
1.35
1.51
1.58
1.44
1.08
0.65
0.32
0.25
0.48
0.94
1.48
1.87
1.93
1.50
0.62
-0.56
-1.81
-2.99
-4.05
-5.01
-5.92
-6.72
-7.39
-7.94
-8.54
-9.50
-11.02
-13.02
-15.03
-16.38
-16.48
-15.20
-12.90
-10.31
-8.14
-6.72
-6.00
-5.62
-5.24
-4.72
-4.16
-3.73
-3.57
-3.67
-3.87
-4.11
-4.33
-4.56
-4.77
-4.89
-4.76
-4.25
-3.32
-2.08
-0.74
0.49
1.42
1.98
2.17
2.05
1.76
1.49
1.40
1.59
2.02
2.50
2.82
2.90
2.86
2.94
3.36
4.06
4.79
5.17
4.92
4.01
2.65
1.16
-0.16
-1.18
-1.88
-2.35
-2.75
-3.25
-3.98
-5.02
-6.16
-6.99
-6.99
-5.74
-3.21
0.21
3.82
6.86
8.85
9.74
9.81
9.46
9.08
8.78
8.51
8.14
7.56
6.81
6.03
5.33
4.82
4.53
4.47
4.70
5.27
6.12
7.12
8.00
8.48
8.44
7.96
7.26
6.64
6.30
6.21
6.23
6.11
5.69
4.97
4.09
3.21
2.46
1.86
1.33
0.80
0.25
-0.28
-0.74
-1.20
-1.85
-2.90
-4.51
-6.54
-8.52
-9.87
-9.99
-8.67
-6.17
-3.12
-0.27
1.76
2.73
2.76
2.22
1.52
0.93
0.54
0.26
-0.01
-0.34
-0.64
-0.82
-0.80
-0.59
-0.30
-0.03
0.21
0.53
1.03
1.74
2.52
3.15
3.50
3.60
3.61
3.74
4.01
4.27
4.25
3.80
3.02
2.17
1.57
1.41
1.58
1.79
1.69
0.92
-0.62
-2.84
-5.41
-7.79
-9.40
-9.80
-8.83
-6.68
-3.85
-0.88
1.74
3.73
5.04
5.75
5.95
5.79
5.34
4.64
3.72
2.58
1.27
-0.05
-1.21
-2.01
-2.33
-2.24
-1.85
-1.34
-0.80
-0.17
0.63
1.50
2.25
2.55
2.14
1.05
-0.38
-1.65
-2.27
-2.04
-1.12
0.07
0.99
1.22
0.60
-0.78
-2.69
-4.82
-6.90
-8.74
-10.28
-11.59
-12.82
-14.11
-15.54
-17.05
-18.40
-19.33
-19.48
-18.63
-16.72
-13.93
-10.69
-7.57
-5.10
-3.64
-3.33
-4.01
-5.42
-7.28
-9.33
-11.27
-12.72
-13.16
-12.20
-9.76
-6.22
-2.37
1.00
3.36
4.64
5.17
5.35
5.41
5.30
4.82
3.85
2.50
1.04
-0.27
-1.27
-2.04
-2.71
-3.39
-4.02
-4.49
-4.67
-4.61
-4.46
-4.42
-4.60
-4.92
-5.20
-5.32
-5.33
-5.47
-6.07
-7.28
-8.91
-10.49
-11.35
-11.01
-9.27
-6.30
-2.57
1.38
5.05
8.06
10.14
11.18
11.24
10.53
9.40
8.22
7.26
6.65
6.34
6.27
6.35
6.56
6.96
7.55
8.25
8.92
9.39
9.49
9.18
8.54
7.74
7.04
6.61
6.53
6.76
7.06
7.19
6.95
6.21
5.09
3.90
2.96
2.59
2.82
3.48
4.11
4.22
3.43
1.67
-0.81
-3.50
-5.80
-7.21
-7.44
-6.44
-4.38
-1.59
1.55
4.59
7.17
9.04
10.09
10.40
10.19
9.73
9.22
8.80
8.49
8.30
8.25
8.36
8.62
8.92
9.10
9.06
8.79
8.43
8.21
8.28
8.67
9.18
9.47
9.24
8.39
7.01
5.44
4.04
3.00
2.30
1.77
1.20
0.52
-0.25
-1.08
-2.06
-3.41
-5.31
-7.70
-10.16
-11.95
-12.33
-10.97
-8.06
-4.28
-0.47
2.70
4.98
6.43
7.25
7.63
7.59
7.11
6.21
5.04
3.87
2.96
2.42
2.16
1.98
1.70
1.34
1.06
1.08
1.57
2.47
3.50
4.33
4.67
4.43
3.78
2.98
2.30
1.87
1.57
1.17
0.46
-0.64
-2.00
-3.36
-4.46
-5.17
-5.49
-5.63
-5.86
-6.50
-7.83
-9.88
-12.44
-14.96
-16.69
-16.94
-15.38
-12.14
-7.88
-3.43
0.47
3.43
5.40
6.59
7.20
7.39
7.28
6.94
6.46
5.97
5.50
5.06
4.62
4.16
3.73
3.42
3.29
3.35
3.52
3.76
4.08
4.58
5.35
6.39
7.46
8.19
8.21
7.35
5.75
3.86
2.16
1.02
0.46
0.20
-0.19
-1.01
-2.32
-3.88
-5.34
-6.45
-7.18
-7.74
-8.44
-9.51
-10.99
-12.78
-14.66
-16.46
-18.00
-19.07
-19.51
-19.08
-17.64
-15.28
-12.34
-9.28
-6.59
-4.50
-2.97
-1.80
-0.71
0.39
1.37
1.96
1.92
1.17
-0.13
-1.63
-2.91
-3.61
-3.55
-2.72
-1.30
0.39
1.94
3.05
3.54
3.42
2.91
2.26
1.74
1.47
1.43
1.56
1.76
1.97
2.14
2.27
2.34
2.40
2.48
2.58
2.67
2.63
2.33
1.71
0.83
-0.19
-1.20
-2.09
-2.83
-3.44
-4.03
-4.76
-5.80
-7.29
-9.19
-11.17
-12.68
-13.06
-11.83
-8.97
-4.93
-0.52
3.36
6.12
7.56
7.92
7.67
7.33
7.25
7.56
8.10
8.58
8.75
8.48
7.90
7.30
6.99
7.10
7.56
8.10
8.46
8.54
8.40
8.24
8.26
8.52
8.90
9.15
9.06
8.55
7.78
7.01
6.57
6.61
7.01
7.44
7.51
7.00
5.99
4.84
3.97
3.67
3.82
4.05
3.90
2.99
1.33
-0.91
-3.35
-5.68
-7.65
-9.04
-9.53
-8.80
-6.65
-3.21
0.93
4.92
7.96
9.58
9.84
9.20
8.27
7.49
6.97
6.54
5.95
5.06
3.96
2.89
2.12
1.79
1.87
2.17
2.50
2.72
2.85
2.97
3.14
3.31
3.37
3.18
2.72
2.12
1.63
1.42
1.49
1.64
1.55
1.05
0.17
-0.86
-1.75
-2.37
-2.80
-3.31
-4.14
-5.42
-7.11
-8.99
-10.83
-12.40
-13.48
-13.85
-13.29
-11.68
-9.05
-5.65
-1.96
1.51
4.36
6.34
7.48
7.92
7.83
7.36
6.58
5.57
4.43
3.33
2.38
1.75
1.44
1.42
1.65
2.13
2.85
3.79
4.83
5.81
6.48
6.65
6.24
5.31
4.02
2.60
1.34
0.47
0.10
0.21
0.53
0.74
0.50
-0.37
-1.77
-3.42
-4.98
-6.15
-6.90
-7.38
-7.88
-8.72
-10.13
-12.13
-14.52
-16.86
-18.61
-19.28
-18.53
-16.33
-12.97
-8.98
-5.03
-1.72
0.54
1.67
1.84
1.49
1.02
0.71
0.64
0.62
0.39
-0.22
-1.21
-2.38
-3.42
-4.06
-4.17
-3.74
-2.91
-1.89
-0.89
-0.10
0.33
0.35
-0.07
-0.86
-1.95
-3.17
-4.30
-5.06
-5.25
-4.77
-3.78
-2.63
-1.72
-1.39
-1.76
-2.65
-3.76
-4.70
-5.20
-5.29
-5.17
-5.15
-5.62
-6.74
-8.50
-10.62
-12.61
-13.88
-13.92
-12.41
-9.41
-5.34
-0.85
3.28
6.44
8.34
9.07
9.00
8.56
8.05
7.57
7.13
6.74
6.50
6.57
7.01
7.73
8.46
8.90
8.85
8.31
7.42
6.45
5.60
4.97
4.64
4.55
4.67
4.91
5.15
5.31
5.34
5.18
4.84
4.32
3.59
2.64
1.54
0.45
-0.42
-0.89
-0.90
-0.54
-0.08
0.11
-0.27
-1.35
-2.86
-4.14
-4.40
-3.00
0.10
4.24
8.33
11.32
12.66
12.57
11.80
11.08
10.76
10.61
10.08
8.77
6.73
4.48
2.72
1.94
2.16
2.96
3.73
4.01
3.67
2.90
2.03
1.35
0.98
0.77
0.53
0.04
-0.73
-1.62
-2.36
-2.71
-2.57
-2.09
-1.55
-1.26
-1.41
-2.04
-3.08
-4.46
-6.10
-7.93
-9.79
-11.33
-12.11
-11.75
-10.04
-7.15
-3.50
0.32
3.75
6.39
8.04
8.70
8.52
7.77
6.74
5.69
4.83
4.23
3.98
4.09
4.53
5.15
5.67
5.78
5.37
4.54
3.66
3.20
3.36
4.00
4.66
4.80
4.15
2.83
1.28
0.03
-0.56
-0.49
0.04
0.66
1.05
0.99
0.42
-0.63
-2.07
-3.76
-5.62
-7.62
-9.70
-11.69
-13.30
-14.17
-13.94
-12.50
-10.06
-7.00
-3.76
-0.68
2.04
4.34
6.06
7.03
7.07
6.05
4.14
1.68
-0.86
-3.01
-4.47
-5.18
-5.24
-4.83
-4.19
-3.50
-2.91
-2.50
-2.27
-2.21
-2.27
-2.37
-2.44
-2.42
-2.27
-2.06
-1.93
-2.01
-2.41
-3.14
-4.11
-5.18
-6.18
-6.98
-7.56
-7.98
-8.32
-8.78
-9.51
-10.72
-12.50
-14.79
-17.30
-19.52
-20.88
-20.97
-19.67
-17.21
-14.11
-10.86
-7.84
-5.19
-2.91
-0.98
0.55
1.61
2.11
2.07
1.65
1.04
0.47
0.12
0.06
0.30
0.80
1.49
2.29
3.10
3.79
4.27
4.51
4.50
4.37
4.24
4.20
4.28
4.39
4.39
4.16
3.75
3.27
2.92
2.84
3.01
3.33
3.57
3.56
3.33
2.99
2.77
2.79
2.95
2.97
2.46
1.14
-1.02
-3.74
-6.51
-8.66
-9.66
-9.21
-7.33
-4.37
-0.85
2.66
5.69
7.95
9.42
10.24
10.60
10.65
10.46
10.06
9.48
8.78
8.10
7.58
7.31
7.30
7.45
7.59
7.58
7.39
7.13
6.94
6.96
7.12
7.24
7.11
6.63
5.95
5.33
5.09
5.38
6.05
6.76
7.18
7.10
6.61
5.95
5.36
4.93
4.58
4.13
3.38
2.22
0.61
-1.33
-3.46
-5.49
-7.07
-7.81
-7.40
-5.74
-3.09
0.00
2.86
4.87
5.71
5.46
4.46
3.19
2.04
1.14
0.44
-0.20
-0.94
-1.74
-2.41
-2.76
-2.66
-2.19
-1.50
-0.80
-0.24
0.16
0.46
0.68
0.82
0.89
0.87
0.86
1.00
1.41
2.14
3.04
3.80
4.13
3.85
2.98
1.75
0.49
-0.51
-1.14
-1.49
-1.84
-2.54
-3.87
-5.91
-8.42
-10.88
-12.62
-13.07
-11.94
-9.30
-5.66
-1.71
1.83
4.47
6.01
6.56
6.40
5.90
5.32
4.80
4.30
3.73
3.00
2.12
1.25
0.53
0.05
-0.22
-0.37
-0.44
-0.36
0.00
0.71
1.74
2.81
3.66
4.05
3.90
3.35
2.65
2.06
1.79
1.90
2.24
2.54
2.47
1.79
0.45
-1.36
-3.29
-4.98
-6.24
-7.09
-7.71
-8.36
-9.24
-10.46
-12.00
-13.70
-15.27
-16.30
-16.43
-15.46
-13.49
-10.86
-8.07
-5.59
-3.67
-2.41
-1.64
-1.14
-0.76
-0.44
-0.30
-0.54
-1.33
-2.64
-4.26
-5.78
-6.80
-7.10
-6.75
-5.99
-5.09
-4.16
-3.13
-1.95
-0.66
0.52
1.28
1.41
0.96
0.28
-0.19
-0.12
0.54
1.59
2.60
3.24
3.33
2.87
2.02
0.99
-0.06
-0.99
-1.71
-2.21
-2.55
-2.83
-3.27
-4.03
-5.22
-6.77
-8.37
-9.58
-9.93
-9.11
-7.10
-4.17
-0.75
2.65
5.65
8.04
9.68
10.58
10.78
10.36
9.53
8.52
7.56
6.78
6.18
5.65
5.14
4.61
4.11
3.67
3.32
3.03
2.79
2.59
2.49
2.52
2.66
2.88
3.08
3.20
3.21
3.14
3.05
3.03
3.12
3.35
3.68
4.02
4.20
4.12
3.70
2.95
1.92
0.60
-0.98
-2.82
-4.85
-6.83
-8.36
-9.03
-8.53
-6.75
-3.90
-0.42
3.14
6.23
8.48
9.74
10.12
9.94
9.54
9.10
8.68
8.13
7.33
6.25
4.98
3.70
2.60
1.80
1.26
0.91
0.64
0.46
0.43
0.68
1.29
2.22
3.22
3.96
4.11
3.59
2.58
1.46
0.54
-0.00
-0.33
-0.71
-1.38
-2.37
-3.50
-4.54
-5.36
-6.10
-6.99
-8.19
-9.55
-10.65
-10.97
-10.11
-8.07
-5.25
-2.26
0.32
2.17
3.38
4.23
5.00
5.81
6.45
6.64
6.19
5.15
3.85
2.73
2.14
2.16
2.65
3.26
3.73
3.91
3.82
3.57
3.32
3.13
3.03
2.94
2.77
2.49
2.11
1.72
1.49
1.50
1.66
1.68
1.18
-0.16
-2.29
-4.87
-7.31
-9.06
-9.91
-10.08
-10.08
-10.51
-11.70
-13.60
-15.82
-17.74
-18.79
-18.62
-17.17
-14.73
-11.82
-9.01
-6.84
-5.58
-5.25
-5.63
-6.39
-7.24
-8.00
-8.68
-9.37
-10.22
-11.37
-12.84
-14.60
-16.42
-18.04
-19.15
-19.61
-19.50
-19.20
-19.23
-20.08
-22.04
-25.10
-29.00
-33.29
-37.35
-40.55
-42.42
-42.77
-41.88
-40.39
-38.91
-37.65
-36.28
-34.04
-30.26
-24.83
-18.44
-12.28
-7.43
-4.37
-2.88
-2.38
-2.37
-2.80
-3.88
-5.81
-8.43
-11.21
-13.50
-14.84
-15.11
-14.40
-12.76
-9.99
-5.81
-0.07
6.96
14.51
21.70
28.08
33.79
39.60
46.35
54.41
63.34
72.08
79.43
84.72
88.11
90.45
92.75
95.56
98.69
101.21
101.79
99.21
92.64
81.82
67.13
49.50
30.37
11.49
-5.32
-18.54
-27.09
-30.52
-28.99
-23.17
-14.19
-3.57
7.04
16.03
22.29
25.42
25.79
24.25
21.71
18.79
15.72
12.45
8.74
4.51
-0.22
-5.34
-10.68
-16.12
-21.59
-26.97
-32.11
-36.81
-40.73
-43.51
-44.88
-44.70
-43.07
-40.27
-36.66
-32.62
-28.42
-24.23
-20.10
-16.03
-11.96
-7.88
-3.88
-0.13
3.17
5.86
7.96
9.50
10.55
11.04
10.80
9.74
8.12
6.51
5.77
6.67
9.62
14.52
20.77
27.48
33.68
38.50
41.43
42.53
42.60
43.06
45.61
51.40
60.54
71.92
83.55
93.40
99.86
101.96
99.00
90.51
76.37
57.18
34.55
10.60
-13.27
-37.71
-65.37
-99.29
-140.58
-186.67
-231.66
-268.46
-291.55
-298.54
-289.87
-267.17
-231.91
-185.36
-129.71
-69.28
-10.42
40.09
77.29
99.58
108.78
108.69
103.27
95.38
86.45
76.86
66.41
54.85
42.45
30.00
18.82
10.34
5.41
3.76
3.93
3.84
1.82
-2.36
-7.23
-10.25
-9.15
-3.32
5.61
14.51
20.26
21.39
18.88
15.39
13.72
15.15
18.79
22.35
23.70
22.20
19.01
16.16
15.12
15.78
16.53
15.19
10.39
2.33
-7.22
-15.75
-21.11
-22.28
-19.64
-14.58
-8.76
-3.54
0.39
3.00
4.71
5.96
7.03
7.93
8.39
8.03
6.47
3.51
-0.72
-5.62
-10.25
-13.53
-14.66
-13.51
-10.75
-7.69
-5.70
-5.66
-7.53
-10.51
-13.43
-15.38
-16.09
-15.89
-15.41
-15.11
-15.12
-15.28
-15.48
-15.89
-17.01
-19.23
-22.37
-25.41
-26.56
-24.06
-17.01
-6.01
6.85
18.77
27.34
31.55
32.05
30.74
29.75
30.49
33.14
36.77
39.99
41.74
41.65
40.00
37.41
34.31
30.88
27.06
22.68
17.60
11.67
4.86
-2.63
-10.15
-16.67
-21.00
-22.41
-21.01
-17.79
-14.17
-11.29
-9.54
-8.56
-7.72
-6.72
-5.84
-5.66
-6.57
-8.47
-10.69
-12.44
-13.18
-12.91
-11.99
-10.94
-10.05
-9.29
-8.40
-7.03
-4.97
-2.28
0.80
3.90
6.65
8.84
10.38
11.33
11.85
12.07
12.06
11.85
11.42
10.83
10.23
9.80
9.71
10.00
10.51
10.96
11.05
10.61
9.71
8.58
7.48
6.60
5.91
5.26
4.51
3.61
2.60
1.46
-0.03
-2.28
-5.60
-9.91
-14.46
-18.01
-19.27
-17.44
-12.64
-5.92
1.22
7.32
11.51
13.71
14.49
14.67
14.88
15.31
15.64
15.34
13.95
11.55
8.66
6.06
4.32
3.54
3.36
3.33
3.31
3.53
4.38
5.86
7.37
7.86
6.45
3.01
-1.65
-6.19
-9.62
-11.69
-13.02
-14.36
-15.84
-16.86
-16.41
-13.92
-9.88
-5.66
-2.73
-1.83
-2.42
-3.16
-2.72
-0.65
2.51
5.66
7.93
9.12
9.65
10.12
10.76
11.37
11.48
10.80
9.42
7.76
6.31
5.38
5.09
5.30
5.78
6.26
6.38
5.85
4.48
2.40
0.09
-1.77
-2.58
-2.16
-0.94
0.20
0.39
-0.83
-3.25
-6.08
-8.42
-9.61
-9.53
-8.54
-7.17
-5.76
-4.36
-2.80
-0.95
1.08
3.01
4.53
5.52
6.09
6.35
6.06
4.50
0.70
-5.97
-15.00
-24.66
-32.39
-35.90
-34.33
-28.71
-21.50
-15.39
-12.05
-11.44
-12.26
-12.88
-12.35
-10.85
-9.20
-7.94
-6.62
-3.65
3.15
15.39
33.14
54.42
75.58
92.42
101.69
102.20
95.07
82.86
68.31
53.18
38.00
22.76
7.80
-5.89
-17.05
-24.91
-29.85
-33.04
-35.68
-38.11
-39.55
-38.75
-34.99
-28.71
-21.46
-15.12
-10.99
-9.32
-9.43
-10.20
-10.68
-10.30
-8.99
-7.05
-4.92
-3.05
-1.72
-1.01
-0.79
-0.97
-1.35
-1.73
-1.93
-1.77
-1.20
-0.34
0.49
0.92
0.71
-0.12
-1.32
-2.49
-3.30
-3.58
-3.34
-2.70
-1.83
-0.89
0.04
0.95
1.99
3.37
5.04
6.58
7.23
6.15
3.06
-1.47
-6.09
-9.31
-10.18
-8.85
-6.41
-4.27
-3.41
-3.89
-5.01
-5.74
-5.34
-3.70
-1.26
1.21
2.96
3.50
2.75
1.04
-0.92
-2.37
-2.82
-2.22
-1.03
-0.00
0.28
-0.43
-2.03
-4.23
-6.70
-8.93
-10.01
-8.74
-3.93
4.73
15.94
26.87
34.04
34.92
29.25
19.22
8.39
-0.12
-5.12
-7.68
-10.03
-13.80
-18.84
-23.16
-24.29
-20.91
-13.89
-6.05
-0.63
0.46
-2.49
-7.28
-11.10
-12.00
-9.71
-5.50
-1.31
1.24
1.50
-0.17
-2.64
-4.53
-4.68
-2.53
1.67
6.83
11.49
14.31
14.69
13.10
10.78
9.15
9.04
10.33
12.06
12.92
11.94
9.02
4.96
1.11
-1.13
-0.99
1.41
5.17
8.97
11.67
12.76
12.45
11.40
10.46
10.45
12.07
15.98
22.53
31.02
39.20
43.12
38.34
22.05
-5.08
-38.25
-69.94
-92.90
-102.96
-100.35
-88.69
-72.57
-55.32
-38.18
-21.14
-4.53
10.08
20.25
24.03
21.32
14.20
5.92
-0.54
-3.60
-3.46
-1.51
0.71
2.24
2.88
3.06
3.36
4.14
5.40
6.83
7.96
8.39
7.89
6.57
4.82
3.17
2.13
1.93
2.40
3.13
3.74
4.18
4.77
5.94
7.89
10.23
12.10
12.50
10.82
7.20
2.45
-2.26
-5.86
-7.70
-7.69
-6.16
-3.65
-0.80
1.89
4.13
5.81
7.06
7.98
8.54
8.58
7.85
6.37
4.45
2.67
1.57
1.38
1.83
2.29
2.18
1.32
0.01
-1.10
-1.41
-0.69
0.83
2.62
4.13
5.09
5.58
5.99
6.75
8.20
10.38
13.06
15.72
17.79
18.81
18.56
17.27
15.56
14.34
14.52
16.68
20.75
25.88
30.38
32.05
28.65
18.68
2.07
-19.35
-41.93
-61.10
-72.65
-74.14
-65.71
-49.95
-30.95
-12.88
1.16
9.68
12.64
10.92
5.80
-1.37
