7532
7497
7527
7555
7548
7530
7483
7427
7308
7144
7006
6885
6768
6682
6640
6567
6436
6373
6429
6415
6250
6147
6161
6102
5979
5946
5965
5911
5811
5745
5701
5647
5619
5565
5418
5318
5313
5290
5199
5086
5016
4970
4895
4820
4773
4729
4661
4584
4533
4507
4465
4386
4316
4288
4248
4176
4129
4101
4031
3963
3930
3905
3846
3767
3708
3683
3638
3575
3554
3529
3431
3349
3330
3302
3251
3204
3164
3129
3078
3031
3026
2996
2865
2763
2772
2763
2678
2643
2676
2636
2510
2438
2450
2433
2379
2365
2370
2354
2309
2246
2223
2209
2153
2211
2541
3111
3818
4243
3582
2223
1721
2006
1975
1765
1791
1821
1770
1756
1756
1742
1737
1726
1714
1726
1726
1719
1730
1751
1758
1751
1761
1793
1824
1835
1838
1833
1805
1768
1737
1679
1569
1443
1338
1256
1181
1123
1088
1053
1015
1006
1008
994
973
964
966
955
894
850
861
847
805
803
817
810
780
731
703
700
686
667
653
637
628
623
621
618
616
609
604
602
595
600
611
607
593
593
595
590
590
593
588
579
579
581
576
560
558
555
530
523
537
523
506
525
537
518
497
478
478
513
558
576
555
523
511
511
506
511
520
504
483
499
511
492
481
474
499
759
1331
1973
2319
1859
710
119
366
427
226
247
315
275
284
331
333
336
362
380
397
418
427
441
476
518
544
565
609
651
681
710
726
735
740
696
607
520
422
310
221
163
114
74
56
53
46
35
37
51
56
56
70
81
84
88
98
109
112
98
95
112
114
107
100
86
70
58
51
37
0
-23
-9
-11
-58
-86
-81
-91
-102
-91
-79
-77
-77
-70
-58
-51
-49
-35
-21
-25
-30
-14
2
-2
-18
-32
-28
2
37
51
35
11
11
21
30
37
42
46
56
58
67
84
86
67
98
326
861
1648
2321
2060
745
-151
23
182
-14
-44
39
18
4
42
51
37
35
49
63
58
58
81
114
149
184
221
259
296
310
305
326
359
355
315
270
207
116
30
-32
-84
-123
-142
-147
-147
-149
-144
-135
-137
-140
-123
-107
-126
-154
-147
-123
-116
-114
-100
-86
-77
-70
-58
-49
-51
-51
-32
-18
-18
-18
-14
-7
-7
0
16
21
9
14
37
42
25
4
0
4
-2
-21
-49
-79
-79
-49
-14
-7
-25
-44
-60
-74
-77
-65
-56
-58
-67
-60
-51
-72
-114
-130
-67
200
789
1588
2104
1548
207
-387
-102
-56
-238
-191
-130
-172
-156
-109
-100
-84
-60
-39
-11
14
44
79
102
135
175
212
263
310
338
373
397
392
385
366
301
200
98
4
-63
-109
-154
-184
-184
-193
-212
-221
-221
-214
-191
-170
-161
-151
-140
-128
-119
-100
-79
-70
-77
-77
-56
-42
-42
-39
-32
-35
-35
-18
-14
-39
-53
-35
-25
-49
-77
-74
-70
-86
-91
-67
-23
25
42
28
23
21
21
37
46
30
32
56
63
53
60
63
63
168
527
1172
1894
2141
1326
105
-210
56
0
-116
-49
-63
-130
-88
-46
-74
-81
-49
-42
-49
-23
16
35
65
119
151
163
205
275
326
322
296
291
282
231
135
23
-81
-163
-214
-252
-277
-301
-303
-282
-291
-336
-338
-298
-284
-287
-270
-240
-219
-205
-193
-182
-172
-165
-147
-121
-123
-142
-133
-112
-112
-128
-137
-140
-137
-119
-105
-116
-128
-126
-135
-149
-161
-158
-112
-79
-98
-112
-102
-100
-112
-119
-107
-91
-93
-91
-72
-70
-91
-88
30
401
1041
1761
2043
1254
23
-287
-7
-72
-196
-109
-84
-123
-93
-60
-51
-28
-4
18
35
25
16
56
105
128
165
217
254
294
345
378
390
380
345
287
191
74
-14
-77
-135
-170
-186
-205
-231
-249
-252
-249
-256
-268
-256
-245
-233
-214
-193
-177
-175
-168
-149
-135
-130
-121
-105
-100
-105
-98
-79
-72
-84
-93
-79
-63
-65
-60
-42
-37
-42
-25
-9
-4
-4
0
11
21
23
32
42
37
37
53
65
67
65
63
53
9
-39
-23
35
63
53
42
46
44
35
39
46
46
51
63
70
63
67
74
42
21
221
794
1655
2419
2183
759
-303
-179
16
-177
-210
-114
-144
-161
-112
-100
-109
-91
-67
-51
-23
14
35
60
100
130
156
200
254
294
319
329
324
322
305
256
186
98
4
-56
-95
-147
-191
-217
-233
-238
-233
-226
-240
-280
-308
-291
-263
-259
-256
-240
-221
-212
-203
-186
-177
-184
-184
-184
-203
-207
-186
-175
-170
-154
-142
-128
-116
-112
-105
-84
-67
-63
-56
-49
-63
-74
-60
-42
-39
-42
-35
-18
-7
-4
4
11
14
23
35
46
49
44
51
67
72
70
74
81
81
84
95
105
102
95
102
112
105
95
98
95
91
100
114
119
112
105
102
81
28
0
30
65
74
65
37
23
21
21
28
39
42
44
39
18
16
30
35
16
23
214
766
1623
2403
2181
747
-319
-189
-4
-217
-259
-168
-200
-221
-175
-156
-144
-119
-107
-86
-49
-21
-2
18
49
84
119
156
198
238
266
275
277
282
275
247
191
107
23
-32
-93
-179
-240
-235
-224
-235
-226
-207
-200
-200
-205
-203
-182
-175
-177
-156
-154
-193
-210
-182
-184
-196
-179
-179
-198
-191
-177
-177
-172
-168
-158
-135
-128
-144
-142
-119
-105
-107
-112
-114
-112
-98
-77
-70
-84
-86
-72
-65
-72
-74
-70
-74
-86
-91
-91
-107
-128
-123
-116
-116
-116
-123
-140
-147
-154
-161
-156
-156
-158
-147
-135
-128
-114
-98
-91
-84
-100
-112
-98
-88
-88
-77
-58
-51
-49
-42
-32
-32
-37
-37
-49
-79
-67
-16
2
-7
2
11
2
7
28
39
49
53
56
72
86
88
79
81
205
593
1263
2015
2207
1244
56
-105
165
51
-70
-2
-2
-37
9
44
39
51
81
102
116
142
177
203
217
245
284
319
348
383
418
429
420
420
422
387
324
252
158
60
-9
-65
-121
-156
-168
-168
-163
-172
-191
-186
-186
-228
-268
-254
-231
-231
-221
-196
-182
-179
-175
-158
-147
-147
-137
-121
-116
-119
-105
-86
-79
-81
-79
-77
-109
-149
-144
-119
-123
-123
-98
-77
-74
-72
-56
-37
-32
-25
-9
-2
-7
2
23
46
49
35
30
16
-2
9
28
30
23
28
42
44
32
35
53
53
39
56
81
77
67
81
91
91
91
95
98
60
-4
14
86
86
63
88
102
81
77
86
88
86
98
114
112
98
95
88
86
177
527
1172
1905
2209
1441
200
-130
140
72
-46
28
21
-35
-2
25
16
32
53
70
91
93
77
74
95
116
140
168
203
233
261
289
315
326
326
301
238
158
65
-42
-123
-165
-203
-238
-252
-247
-245
-245
-228
-200
-191
-196
-179
-154
-158
-184
-184
-163
-158
-154
-144
-144
-151
-149
-140
-123
-112
-107
-98
-88
-84
-77
-58
-44
-44
-44
-35
-18
-11
-4
4
7
9
21
37
44
39
14
-7
0
11
14
18
7
-9
2
23
28
25
30
37
44
49
56
60
56
53
58
51
37
51
93
126
128
114
114
112
86
77
95
93
49
11
16
25
14
-4
-11
65
371
1008
1856
2281
1476
95
-308
-9
-58
-212
-140
-112
-165
-137
-91
-93
-81
-51
-35
-23
-2
25
56
77
74
81
123
168
184
191
217
233
235
235
214
154
65
-30
-126
-217
-282
-329
-366
-392
-394
-387
-387
-392
-385
-369
-357
-348
-322
-303
-308
-305
-275
-252
-245
-240
-242
-242
-228
-210
-193
-177
-175
-168
-147
-128
-119
-114
-105
-107
-137
-156
-133
-109
-114
-105
-81
-72
-60
-39
-32
-30
-21
-2
11
-11
-46
-37
-18
-35
-37
-14
-2
-2
16
35
39
42
44
56
74
84
79
81
91
95
102
114
116
93
79
102
149
175
179
175
165
144
144
163
151
119
116
128
133
133
135
130
140
310
782
1525
2270
2246
1041
-58
-28
198
23
-42
14
-53
-84
-28
-42
-86
-58
-16
-11
7
28
21
23
53
95
140
182
224
268
305
338
364
380
373
326
256
184
98
7
-65
-116
-177
-231
-242
-240
-287
-333
-312
-282
-282
-270
-245
-226
-214
-214
-221
-214
-217
-228
-217
-196
-193
-186
-172
-170
-170
-156
-137
-128
-126
-123
-112
-95
-88
-77
-58
-60
-65
-49
-30
-21
-18
-14
-7
-23
-56
-74
-86
-98
-91
-67
-51
-46
-42
-32
-21
-11
-2
11
21
16
21
37
49
49
49
46
30
21
44
88
128
133
121
123
123
112
109
102
86
84
102
114
109
98
86
105
282
777
1578
2377
2340
1041
-114
-51
182
-39
-102
14
-11
-46
4
21
9
35
70
84
95
114
140
156
154
154
179
210
219
242
294
319
305
296
301
270
203
123
37
-51
-119
-151
-170
-193
-205
-200
-196
-189
-175
-154
-140
-137
-130
-109
-91
-91
-95
-91
-91
-100
-98
-84
-81
-86
-81
-67
-63
-67
-67
-72
-81
-93
-102
-98
-95
-107
-105
-91
-84
-84
-79
-74
-77
-74
-60
-44
-39
-49
-60
-49
-49
-72
-77
-60
-58
-58
-49
-51
-84
-114
-98
-91
-135
-158
-130
-121
-140
-140
-130
-112
-77
-35
-11
-21
-32
-30
-21
-21
-30
-32
-32
-35
-35
-30
-28
-37
-25
151
625
1366
2116
2113
920
-191
-177
49
-126
-198
-107
-116
-147
-119
-102
-91
-70
-58
-44
-23
-7
11
37
58
63
72
109
151
172
179
200
224
226
210
186
137
53
-35
-100
-142
-182
-210
-217
-228
-266
-291
-266
-233
-228
-219
-191
-170
-163
-144
-123
-121
-126
-109
-95
-100
-112
-107
-93
-84
-79
-67
-56
-60
-70
-70
-65
-70
-86
-86
-74
-70
-70
-58
-49
-51
-46
-37
-30
-25
-21
-16
-7
-2
-4
-2
9
7
7
25
18
-16
-23
0
4
4
23
39
42
39
46
60
58
42
35
58
100
140
151
142
130
116
116
133
137
121
107
98
67
28
25
30
39
207
684
1427
2144
2062
873
-130
-67
126
-42
-84
-4
-32
-44
2
11
14
49
70
77
102
135
156
170
189
191
182
179
210
259
282
291
310
305
259
217
175
100
18
-42
-81
-114
-154
-182
-177
-165
-161
-156
-144
-128
-119
-107
-86
-72
-77
-74
-51
-51
-72
-70
-56
-53
-53
-44
-30
-35
-56
-49
-35
-63
-112
-119
-91
-88
-100
-95
-84
-95
-130
-140
-109
-102
-114
-102
-91
-102
-102
-86
-74
-84
-91
-86
-70
-58
-51
-46
-46
-44
-35
-39
-67
-77
-63
-56
-65
-60
-21
28
44
32
28
32
30
28
37
44
46
53
65
77
72
46
51
224
656
1300
1961
2015
994
-67
-86
158
2
-70
30
18
-18
18
39
23
9
11
37
65
79
105
142
172
196
233
282
317
338
362
380
392
387
369
338
280
193
102
18
-49
-105
-158
-193
-203
-203
-193
-179
-175
-170
-179
-203
-210
-193
-172
-156
-147
-140
-123
-109
-100
-95
-105
-119
-112
-91
-81
-77
-74
-67
-67
-79
-79
-60
-56
-65
-65
-49
-35
-37
-51
-63
-63
-72
-81
-72
-81
-161
-233
-210
-177
-191
-186
-172
-184
-191
-172
-151
-151
-158
-163
-158
-137
-98
-49
-35
-53
-72
-95
-109
-98
-95
-93
-77
-65
-63
-53
-51
-67
-56
135
621
1366
2085
2013
805
-245
-193
18
-161
-221
-130
-142
-163
-128
-121
-116
-88
-70
-56
-30
-14
0
30
65
91
112
144
186
224
252
280
294
287
263
233
182
105
9
-77
-133
-191
-249
-252
-238
-252
-249
-217
-196
-186
-172
-154
-135
-133
-144
-130
-107
-109
-102
-81
-72
-72
-60
-46
-44
-37
-28
-16
-9
-11
-18
-21
-14
-7
2
9
11
4
2
9
9
4
11
23
21
23
32
23
2
-4
-4
-11
-18
-21
-14
-7
-9
-7
2
-2
-18
-30
-44
-49
-16
28
42
35
25
23
21
0
-37
-39
-14
-11
-14
-7
-2
-23
-39
98
525
1226
2008
2181
1139
-79
-200
79
-49
-158
-67
-58
-102
-91
-67
-51
-23
0
18
44
70
91
126
165
191
217
256
301
333
362
385
394
373
324
275
228
149
49
-18
-56
-98
-128
-137
-144
-154
-154
-142
-128
-126
-123
-107
-88
-79
-67
-56
-49
-44
-35
-23
-11
-11
-16
-32
-56
-63
-44
-39
-70
-109
-114
-84
-77
-88
-81
-60
-49
-42
-49
-53
-46
-37
-32
-30
-35
-37
-30
-18
-25
-32
-14
2
-7
-16
-21
-25
-30
-44
-56
-49
-46
-49
-37
-35
-51
-56
-49
-58
-53
-25
-7
-4
-2
-9
-18
-16
-11
-7
4
11
4
7
28
30
11
16
135
478
1100
1863
2183
1359
58
-266
46
-21
-170
-84
-51
-102
-86
-58
-79
-105
-91
-58
-42
-32
7
51
79
121
163
198
240
280
315
357
378
378
378
357
294
198
112
42
-30
-81
-105
-126
-149
-151
-137
-135
-137
-130
-114
-102
-93
-77
-53
-51
-60
-51
-23
-16
-25
-21
-14
-11
-11
-9
9
23
0
-28
-21
-11
-18
-11
-4
-7
-4
7
16
14
-2
-14
-18
-21
-18
-18
-32
-63
-84
-77
-84
-133
-168
-156
-158
-177
-168
-154
-156
-154
-144
-147
-154
-151
-123
-79
-46
-49
-58
-53
-58
-58
-56
-53
-49
-46
-42
-35
-25
-23
-30
30
298
850
1583
2102
1658
390
-261
-11
65
-114
-84
-18
-67
-91
-65
-49
-37
-14
4
23
46
70
86
107
133
163
207
254
294
329
362
380
390
390
369
310
219
128
46
-51
-140
-172
-184
-205
-212
-198
-184
-177
-170
-151
-135
-128
-116
-105
-112
-119
-100
-77
-65
-67
-72
-65
-51
-46
-39
-28
-32
-39
-28
-7
-2
-11
-9
4
9
9
21
30
21
-4
-30
-30
-25
-32
-35
-30
-35
-39
-32
-35
-58
-72
-72
-72
-77
-81
-86
-79
-72
-67
-60
-53
-56
-58
-56
-63
-77
-70
-42
-32
-46
-51
-42
-53
-72
-63
-39
-30
-39
-44
-37
-35
-30
-18
-23
2
228
803
1644
2337
2024
637
-273
-86
60
-135
-144
-67
-105
-109
-63
-56
-46
-14
-11
-21
2
42
63
77
93
114
126
126
161
214
242
256
280
294
275
221
149
67
-14
-84
-121
-149
-189
-205
-189
-177
-184
-179
-163
-154
-149
-133
-114
-107
-112
-112
-116
-142
-179
-189
-170
-163
-170
-163
-147
-147
-154
-147
-137
-137
-137
-123
-121
-128
-133
-137
-137
-135
-147
-144
-130
-128
-142
-161
-191
-217
-226
-245
-266
-270
-263
-254
-249
-254
-242
-214
-205
-212
-200
-175
-156
-147
-135
-123
-116
-109
-84
-67
-72
-70
-53
-49
-58
-46
-4
42
65
63
58
44
30
37
53
63
70
77
74
79
86
88
86
135
378
952
1789
2375
1810
352
-310
-7
30
-184
-133
-60
-114
-98
-44
-42
-32
-21
-30
-18
7
28
60
95
116
149
193
238
280
324
359
378
394
390
369
324
242
158
86
18
-28
-49
-74
-95
-91
-77
-67
-70
-63
-39
-25
-23
-21
-32
-37
-21
-4
9
18
11
7
23
32
35
44
44
32
42
58
44
9
4
18
14
-25
-58
-42
-25
-60
-81
-65
-86
-161
-214
-233
-242
-240
-224
-207
-198
-193
-182
-158
-144
-144
-135
-116
-107
-100
-88
-74
-67
-67
-53
-30
-25
-23
-9
2
4
-4
-14
-11
4
30
67
84
53
35
42
35
32
49
58
63
65
67
79
86
74
70
130
385
950
1763
2363
1887
516
-186
63
128
-72
-49
16
-56
-98
-60
-35
-39
-46
-37
-7
23
39
65
93
121
156
200
240
270
305
338
362
373
371
352
298
214
130
67
11
-44
-91
-123
-126
-121
-114
-105
-98
-102
-102
-86
-70
-65
-58
-56
-53
-42
-25
-28
-51
-60
-46
-39
-42
-32
-23
-32
-46
-58
-67
-65
-74
-95
-93
-81
-86
-86
-74
-72
-81
-91
-121
-163
-179
-170
-161
-172
-200
-200
-182
-184
-179
-151
-133
-126
-119
-114
-102
-91
-81
-65
-46
-51
-58
-39
-23
-21
-16
-9
-9
-16
-25
-32
-28
2
37
49
46
37
32
35
39
46
58
74
84
74
65
70
74
79
210
611
1268
1947
2031
1044
-51
-158
67
-58
-149
-67
-58
-107
-112
-100
-100
-102
-84
-60
-37
-4
28
56
84
95
91
119
177
214
238
268
291
289
275
256
203
116
25
-44
-88
-116
-156
-184
-177
-168
-179
-175
-154
-149
-142
-116
-98
-100
-102
-100
-91
-81
-74
-63
-53
-60
-70
-67
-63
-72
-93
-114
-114
-102
-93
-88
-86
-88
-84
-72
-60
-65
-86
-86
-70
-86
-114
-102
-86
-95
-100
-81
-65
-58
-53
-42
-39
-37
-16
-2
-16
-18
7
11
-28
-60
-49
-46
-84
-102
-77
-86
-147
-186
-177
-147
-102
-65
-60
-77
-81
-70
-51
-44
-51
-46
-25
-9
-2
4
7
-7
53
350
917
1623
2045
1501
301
-200
39
70
-86
-67
-23
-46
-51
-35
-23
-11
-11
-18
9
53
67
74
112
163
193
219
254
296
336
352
362
383
383
343
287
219
137
60
2
-42
-79
-107
-114
-109
-121
-133
-116
-107
-133
-156
-140
-123
-123
-107
-93
-114
-163
-189
-163
-142
-149
-147
-126
-114
-128
-144
-140
-135
-151
-163
-156
-149
-149
-133
-119
-128
-147
-149
-133
-126
-130
-137
-154
-177
-175
-158
-161
-168
-151
-130
-126
-123
-114
-109
-107
-98
-88
-84
-84
-81
-74
-67
-67
-74
-81
-86
-74
-44
-28
-37
-56
-72
-77
-65
-60
-72
-70
-60
-88
-130
-121
-95
-116
-88
151
639
1272
1784
1513
415
-266
-86
37
-116
-123
-60
-81
-72
-25
-23
-30
-23
-7
25
65
86
100
133
158
154
163
214
261
287
310
340
355
345
324
289
228
154
81
25
-18
-63
-91
-88
-79
-86
-88
-77
-84
-95
-79
-49
-37
-32
-23
-7
4
14
25
35
32
30
35
37
21
9
14
21
-4
-51
-56
-32
-39
-58
-60
-63
-81
-95
-84
-74
-91
-98
-84
-77
-79
-74
-63
-51
-51
-63
-79
-93
-93
-81
-70
-65
-58
-44
-30
-16
-18
-32
-35
-25
-2
39
67
63
56
56
58
63
60
49
44
28
-7
-11
9
0
-16
44
301
777
1373
1782
1392
329
-189
30
88
-67
-53
2
-25
-21
9
11
9
-2
-14
4
28
39
49
70
93
116
149
182
212
240
266
289
296
273
228
165
91
16
-58
-121
-175
-214
-224
-224
-245
-259
-245
-226
-221
-219
-205
-198
-193
-182
-179
-189
-186
-168
-156
-147
-140
-126
-114
-114
-112
-98
-77
-67
-70
-67
-58
-49
-44
-49
-51
-49
-46
-35
-18
-16
-18
-18
-21
-30
-39
-49
-74
-128
-168
-149
-126
-135
-135
-116
-107
-102
-93
-77
-67
-77
-93
-116
-128
-107
-63
-28
-9
-9
-21
-25
-18
-14
-4
9
21
25
32
39
32
14
32
203
618
1263
1919
1940
927
-58
-77
130
-2
-65
16
14
-16
4
37
49
60
95
133
135
137
184
245
266
270
317
369
376
406
483
516
474
432
413
378
317
233
140
70
-11
-112
-140
-123
-147
-177
-189
-207
-200
-163
-154
-163
-156
-121
-77
-91
-105
-51
-56
-135
-147
-109
-112
-142
-175
-140
-51
-58
-133
-95
-46
-95
-95
-28
-32
-88
-46
16
-44
-100
-49
9
-25
-112
-67
42
-30
-128
-32
16
-128
-172
-70
-88
-189
-142
-70
-137
-149
-86
-137
-161
-100
-161
-207
-86
-93
-217
-154
-44
-91
-163
-2
394
938
1616
1875
1020
-231
-474
-112
-165
-301
-259
-266
-305
-319
-240
-186
-217
-126
-30
-123
-147
23
130
74
18
112
205
193
228
333
383
355
350
362
336
259
144
67
-2
-93
-123
-105
-137
-179
-172
-165
-154
-123
-137
-142
-105
-74
-60
-77
-65
-4
-18
-65
-14
42
11
-28
2
56
30
-28
-28
-30
-14
56
28
-53
2
107
65
-39
-9
86
49
-30
-25
-14
-32
-49
-14
32
9
-23
-28
21
16
-63
-14
130
126
35
23
25
30
25
7
53
81
-7
-70
-28
9
-9
-37
107
611
1356
1980
1919
815
-273
-226
70
-130
-231
-100
-51
-81
-142
-149
-58
16
7
-49
-67
-18
0
35
107
107
100
147
210
259
252
233
247
210
133
130
109
-60
-259
-301
-322
-453
-525
-502
-530
-593
-600
-565
-579
-616
-581
-530
-539
-551
-471
-443
-546
-555
-467
-429
-415
-436
-499
-511
-509
-506
-457
-425
-457
-499
-481
-441
-429
-450
-488
-464
-420
-422
-425
-436
-460
-422
-343
-357
-439
-439
-408
-425
-429
-418
-383
-343
-324
-245
-156
-182
-193
-135
-161
-191
-109
-35
-56
-109
-100
-51
-42
-51
-18
126
513
1198
1975
2225
1291
-95
-446
-93
-137
-331
-261
-191
-226
-210
-168
-165
-126
-67
-65
-58
-2
35
65
128
182
182
203
298
371
387
422
476
467
415
392
350
252
168
102
42
21
2
-49
-79
-70
-49
-25
-2
-7
-16
2
14
21
44
56
46
63
88
100
107
109
109
126
140
137
137
147
149
149
161
177
182
175
177
189
172
133
126
144
140
137
144
142
123
116
123
135
142
149
156
161
158
161
168
161
112
63
77
119
147
175
191
172
149
149
165
170
147
114
109
119
119
121
126
100
119
345
873
1641
2286
1982
665
-177
2
137
-46
-74
-23
-53
-65
-39
-32
-28
-11
4
25
58
81
98
123
161
196
226
259
301
333
352
364
373
352
282
217
158
77
-11
-65
-100
-137
-161
-158
-142
-142
-147
-135
-112
-100
-91
-77
-65
-58
-46
-23
-4
-11
-37
-35
-14
-18
-35
-35
-25
-28
-25
-7
4
-2
0
14
21
25
42
49
37
32
49
63
70
67
70
77
84
81
81
84
84
88
102
112
109
102
91
74
70
86
98
93
91
98
107
107
109
114
105
88
63
39
51
63
44
16
4
-2
18
67
86
72
77
74
42
9
-21
-44
-58
-72
-67
-51
-56
-70
-74
-56
98
534
1249
2010
2109
1020
-142
-212
44
-100
-193
-91
-72
-114
-95
-63
-42
-25
2
42
58
60
88
130
163
182
214
261
280
277
308
348
362
373
376
343
268
163
65
-7
-60
-109
-144
-170
-198
-198
-179
-179
-172
-156
-158
-172
-186
-186
-170
-184
-228
-233
-200
-219
-268
-249
-221
-235
-226
-203
-198
-196
-189
-172
-156
-158
-156
-137
-126
-128
-130
-116
-100
-112
-116
-95
-81
-88
-93
-86
-79
-84
-102
-116
-116
-116
-121
-109
-93
-93
-93
-77
-81
-107
-102
-91
-93
-100
-100
-93
-93
-105
-100
-72
-35
-4
2
-4
-4
-4
-9
-9
-30
-56
-63
-88
-130
-119
-84
-81
-91
-16
289
885
1644
2123
1590
305
-277
-18
37
-128
-93
-37
-72
-60
-21
-11
11
42
53
72
109
137
161
189
207
219
259
317
362
390
413
441
460
450
415
366
287
184
88
30
-14
-60
-95
-100
-98
-102
-98
-81
-79
-81
-65
-44
-35
-32
-28
-14
-7
-14
-18
-30
-81
-128
-116
-93
-93
-93
-86
-74
-70
-70
-74
-74
-77
-74
-56
-42
-49
-46
-35
-39
-58
-65
-63
-65
-77
-84
-72
-60
-63
-77
-81
-88
-121
-133
-107
-98
-105
-93
-79
-72
-60
-51
-49
-44
-28
-14
-4
-2
-2
4
21
25
28
37
39
35
25
21
37
74
95
88
79
74
70
53
25
14
28
44
46
44
46
56
39
-9
-7
198
700
1476
2267
2239
952
-207
-154
100
-86
-158
-53
-67
-100
-58
-37
-49
-39
-14
7
30
53
77
114
149
175
205
252
298
331
364
397
415
413
399
371
305
205
116
49
-16
-63
-84
-102
-123
-123
-107
-102
-126
-149
-142
-128
-123
-119
-126
-151
-158
-142
-135
-140
-151
-168
-172
-165
-161
-161
-156
-170
-210
-224
-203
-186
-189
-184
-170
-163
-158
-142
-123
-126
-135
-123
-100
-95
-95
-86
-70
-60
-60
-46
-35
-32
-28
-14
-2
7
7
9
21
25
25
42
53
46
44
58
70
70
65
70
79
84
74
72
77
74
70
81
93
84
53
11
-4
25
70
100
100
81
79
79
72
74
77
63
35
7
11
25
23
14
11
30
184
644
1408
2225
2277
990
-275
-268
14
-177
-256
-140
-151
-182
-128
-109
-109
-77
-46
-28
-4
18
49
79
105
140
177
205
235
280
324
355
364
364
343
287
221
156
77
-11
-84
-123
-158
-196
-231
-245
-238
-226
-212
-191
-186
-200
-198
-189
-196
-200
-191
-182
-182
-179
-168
-154
-156
-161
-151
-140
-147
-151
-142
-133
-130
-126
-107
-93
-95
-98
-81
-74
-105
-128
-116
-102
-102
-98
-84
-70
-63
-65
-51
-35
-32
-25
-9
-7
-7
2
16
28
23
9
14
25
25
35
44
39
42
53
56
44
23
18
35
35
39
56
58
49
49
63
70
70
63
51
42
56
93
133
137
114
93
79
67
65
72
72
72
74
81
91
91
79
67
77
196
579
1268
2088
2370
1363
-28
-261
77
-49
-196
-91
-79
-130
-88
-58
-72
-56
-30
-32
-23
2
30
60
84
98
123
158
189
224
247
231
198
184
182
149
72
-14
-102
-191
-261
-298
-319
-338
-350
-348
-333
-319
-310
-291
-284
-298
-291
-254
-233
-226
-212
-196
-186
-175
-158
-142
-137
-137
-128
-109
-98
-93
-88
-79
-72
-67
-56
-42
-39
-42
-32
-18
-32
-70
-81
-65
-70
-81
-67
-46
-46
-49
-35
-21
-16
-11
0
7
7
7
-2
-18
-23
-21
-16
0
9
16
25
28
28
37
51
58
58
58
65
74
67
58
63
67
53
49
53
56
74
112
133
126
112
114
107
93
93
102
107
107
105
102
107
109
95
95
196
548
1207
2001
2333
1478
133
-219
70
-28
-212
-128
-91
-149
-126
-72
-70
-60
-30
-11
2
9
2
4
28
49
81
130
165
196
240
273
273
261
249
214
151
60
-49
-142
-198
-242
-282
-312
-324
-315
-296
-282
-277
-263
-242
-235
-226
-196
-172
-175
-170
-151
-128
-121
-126
-123
-107
-98
-93
-77
-65
-74
-79
-60
-53
-72
-79
-65
-63
-93
-133
-123
-102
-142
-179
-154
-128
-133
-133
-121
-102
-109
-126
-112
-93
-105
-100
-74
-60
-58
-53
-42
-35
-42
-30
-7
-18
-32
-21
-9
-14
-11
0
0
0
2
0
-4
-4
-16
-28
-14
16
51
63
39
14
9
11
14
11
-2
-7
-2
-7
-2
9
-9
-42
30
352
917
1581
1966
1399
182
-298
-28
-4
-163
-126
-67
-84
-77
-44
-32
-25
-11
-7
4
39
42
11
42
107
137
158
212
266
287
305
331
340
319
287
238
168
81
-23
-126
-191
-235
-268
-282
-294
-301
-284
-261
-249
-238
-226
-210
-200
-193
-168
-130
-126
-140
-123
-91
-79
-77
-77
-95
-114
-109
-88
-72
-65
-56
-37
-25
-35
-30
-11
-11
-18
9
35
35
32
30
25
-2
-14
16
32
11
14
42
49
42
51
56
39
0
-25
-18
-7
-4
-21
-23
7
14
-9
7
53
77
79
86
93
79
60
74
86
79
86
95
95
102
107
102
107
247
656
1282
1894
1989
1116
46
-123
70
-51
-123
-49
-63
-88
-42
-16
-14
18
37
37
67
109
144
165
179
205
235
256
289
340
392
422
439
453
448
406
312
203
112
16
-65
-105
-158
-238
-259
-235
-235
-249
-233
-212
-219
-214
-184
-170
-182
-172
-128
-109
-123
-130
-123
-126
-140
-144
-133
-128
-142
-154
-158
-154
-149
-151
-147
-135
-128
-119
-109
-95
-88
-91
-77
-53
-51
-56
-46
-32
-28
-23
-4
7
-4
-25
-39
-37
-28
-23
-25
-42
-46
-21
7
18
18
21
23
16
11
23
25
16
28
51
53
44
46
42
30
119
490
1179
1917
2099
1207
28
-207
49
-37
-147
-74
-67
-93
-63
-63
-81
-51
-14
-4
9
37
70
98
123
158
203
238
268
319
373
401
411
420
413
364
289
203
107
0
-88
-140
-161
-182
-191
-186
-184
-189
-182
-165
-154
-151
-140
-119
-105
-100
-86
-77
-74
-63
-49
-39
-37
-44
-44
-28
-21
-28
-32
-46
-102
-170
-182
-165
-177
-184
-165
-147
-147
-149
-156
-151
-154
-168
-170
-168
-184
-193
-179
-168
-165
-161
-151
-154
-156
-142
-128
-130
-135
-128
-128
-147
-158
-130
-77
-51
-77
-105
-100
-107
-128
-137
-135
-137
-135
-121
-116
-123
-121
-116
-112
-2
385
1104
1985
2335
1356
-88
-411
-77
-161
-315
-224
-198
-240
-207
-175
-172
-142
-102
-84
-70
-44
-23
-35
-42
-7
39
74
116
172
224
256
275
291
291
263
210
133
44
-32
-84
-112
-133
-154
-163
-156
-142
-133
-121
-102
-102
-121
-114
-88
-86
-91
-79
-65
-56
-46
-32
-21
-23
-21
-7
2
4
7
11
16
21
23
35
44
37
35
51
63
60
60
58
65
72
72
77
86
70
44
42
51
44
39
44
46
42
46
49
32
11
2
-4
-37
-86
-93
-79
-88
-95
-95
-102
-95
-60
-16
2
-7
-14
-25
-58
-84
-84
-81
-74
-67
-74
-65
-37
-37
-51
4
259
833
1686
2386
1999
511
-397
-158
-18
-240
-231
-133
-177
-189
-128
-107
-102
-79
-53
-35
-9
18
35
42
60
93
137
184
221
254
289
317
324
315
296
249
163
70
-4
-67
-128
-168
-193
-228
-277
-289
-263
-256
-263
-247
-221
-214
-212
-217
-249
-275
-263
-242
-235
-233
-233
-226
-214
-210
-207
-198
-189
-191
-184
-163
-151
-156
-156
-137
-116
-107
-100
-86
-79
-74
-60
-44
-46
-60
-58
-49
-49
-53
-44
-37
-37
-39
-37
-37
-37
-53
-70
-60
-46
-51
-46
-35
-39
-44
-28
-11
-14
-16
-7
2
2
9
23
16
-28
-70
-67
-44
-23
-9
-16
-30
-35
-35
-30
-14
-11
-11
4
18
21
28
35
37
30
51
226
679
1417
2197
2260
1097
-91
-126
137
-28
-121
-18
-18
-58
-37
-28
-28
-11
14
39
58
70
98
133
163
184
203
247
301
333
359
401
418
404
390
369
296
200
116
44
-16
-60
-79
-93
-114
-116
-112
-119
-128
-137
-144
-142
-184
-254
-245
-203
-210
-210
-177
-161
-163
-151
-142
-147
-154
-151
-137
-133
-142
-135
-116
-112
-114
-119
-130
-140
-149
-151
-154
-175
-191
-182
-172
-170
-168
-161
-154
-156
-156
-140
-130
-137
-140
-123
-114
-119
-116
-102
-102
-112
-107
-93
-84
-88
-95
-86
-77
-79
-79
-72
-79
-95
-93
-81
-91
-114
-123
-114
-119
-133
-114
-67
-51
-77
-88
-77
-77
-79
-65
-49
-44
-37
-18
-7
-9
-2
16
16
37
231
728
1494
2225
2106
840
-184
-91
109
-70
-112
-23
-44
-63
-25
-11
-4
30
49
53
77
119
144
161
196
233
254
284
338
387
411
425
446
457
439
383
298
198
109
39
-23
-88
-140
-163
-165
-165
-170
-168
-151
-140
-135
-121
-100
-91
-91
-93
-95
-119
-158
-170
-156
-163
-175
-158
-137
-140
-147
-147
-154
-161
-151
-135
-123
-121
-121
-107
-88
-86
-84
-72
-60
-56
-49
-32
-23
-28
-28
-7
7
9
11
16
21
30
39
49
56
44
37
46
21
-35
-42
-16
-16
-28
-35
-49
-51
-46
-37
-23
-14
-16
-18
-21
-32
-35
-2
51
74
60
49
46
37
37
49
46
39
42
46
46
39
18
9
0
70
436
1135
1915
2139
1205
-49
-289
-7
-105
-240
-165
-151
-189
-161
-144
-151
-128
-98
-86
-77
-53
-28
-7
18
56
98
128
149
182
226
263
284
289
284
254
172
63
-32
-112
-175
-210
-238
-259
-254
-245
-256
-268
-261
-245
-247
-256
-240
-217
-207
-200
-184
-175
-170
-168
-177
-179
-170
-165
-158
-140
-130
-128
-119
-121
-156
-175
-144
-123
-133
-133
-102
-88
-95
-81
-56
-58
-60
-35
-14
-18
-18
-4
4
9
16
21
16
2
2
21
28
25
30
42
56
65
53
30
28
35
42
56
65
60
65
72
67
51
49
79
126
144
142
144
135
109
114
126
102
74
95
119
107
91
98
98
105
254
665
1291
1917
2006
1081
14
-91
154
39
-56
-4
-39
-86
-58
-67
-107
-77
-28
-16
-9
23
56
70
93
133
172
207
249
301
352
378
383
383
380
338
242
140
46
-44
-119
-177
-238
-268
-266
-275
-287
-273
-254
-247
-261
-277
-268
-259
-261
-273
-282
-277
-268
-263
-254
-249
-256
-259
-240
-228
-233
-233
-228
-224
-224
-214
-198
-191
-193
-189
-172
-158
-154
-154
-147
-161
-193
-191
-156
-142
-156
-154
-144
-135
-126
-109
-100
-95
-84
-60
-46
-44
-39
-28
-30
-51
-58
-46
-53
-63
-30
28
63
58
46
46
49
49
60
72
72
70
81
84
63
53
56
79
254
710
1394
2053
2010
903
-100
-58
163
4
-60
21
4
-21
18
44
35
49
79
102
121
140
163
186
217
247
284
317
333
369
415
432
411
385
369
324
245
158
79
-2
-70
-109
-142
-191
-214
-196
-186
-191
-177
-154
-135
-133
-126
-102
-84
-91
-95
-79
-74
-77
-84
-81
-67
-63
-74
-81
-88
-102
-112
-107
-116
-126
-112
-102
-130
-182
-196
-170
-154
-156
-144
-128
-128
-128
-105
-81
-77
-79
-77
-70
-65
-63
-65
-65
-63
-58
-44
-32
-30
-25
-11
-9
-46
-72
-58
-60
-74
-49
-18
-18
-18
-14
-25
-32
-21
-2
7
9
4
14
32
37
32
25
30
184
651
1408
2165
2162
976
-149
-130
112
-65
-135
-32
-53
-86
-32
-7
-21
-4
23
42
63
88
116
133
151
189
233
270
303
338
369
376
378
385
373
326
254
175
95
18
-39
-84
-112
-126
-130
-123
-114
-114
-123
-140
-140
-123
-116
-114
-107
-128
-149
-130
-116
-128
-119
-95
-98
-105
-98
-88
-93
-100
-98
-84
-81
-88
-84
-70
-60
-60
-67
-74
-77
-88
-98
-91
-88
-93
-91
-84
-74
-74
-77
-70
-65
-63
-49
-37
-44
-56
-49
-35
-37
-35
-21
-16
-18
-11
0
2
-11
-28
-23
4
44
81
86
65
39
9
-4
4
7
4
11
18
25
35
37
-7
-49
84
523
1233
2001
2109
1020
-158
-240
28
-119
-259
-198
-179
-198
-170
-140
-133
-114
-88
-67
-39
-21
-4
30
70
95
121
165
212
245
268
289
303
296
266
226
175
88
-4
-72
-133
-189
-221
-224
-226
-233
-235
-224
-212
-210
-198
-179
-182
-205
-217
-203
-189
-191
-189
-179
-182
-184
-172
-172
-203
-212
-193
-186
-191
-184
-179
-177
-193
-224
-224
-200
-205
-210
-177
-147
-144
-151
-161
-161
-156
-158
-154
-147
-154
-154
-130
-114
-112
-105
-100
-95
-93
-91
-79
-65
-67
-58
-28
-21
-35
-30
-23
-30
-21
14
56
79
70
58
60
58
63
79
65
30
18
42
56
46
39
44
109
378
908
1585
2076
1672
448
-207
30
116
-60
-39
21
-16
-2
39
21
-9
4
39
56
63
86
119
154
182
217
261
298
329
373
425
446
439
427
399
348
263
161
72
-2
-72
-109
-121
-133
-142
-140
-142
-137
-116
-102
-102
-100
-86
-67
-53
-37
-23
-23
-39
-51
-63
-74
-70
-60
-60
-74
-107
-135
-144
-154
-154
-135
-137
-147
-128
-112
-116
-114
-109
-109
-114
-126
-140
-142
-130
-126
-142
-142
-128
-133
-163
-184
-172
-156
-170
-191
-175
-151
-170
-184
-163
-154
-182
-198
-168
-114
-67
-56
-86
-116
-112
-88
-77
-81
-93
-93
-74
-53
-53
-72
-77
-67
0
270
833
1585
2045
1441
119
-425
-137
-93
-261
-212
-142
-186
-182
-130
-114
-81
-23
-30
-44
2
44
77
105
126
168
228
296
331
317
336
397
422
429
399
315
242
193
119
21
-63
-142
-196
-170
-158
-214
-205
-109
-79
-147
-161
-100
-86
-98
-88
-67
-18
-16
-49
-39
-28
-30
-7
2
-49
-81
-42
11
-18
-88
-88
-67
-98
-119
-72
-39
-42
-28
-49
-105
-84
-2
-4
-72
-67
-51
-25
240
945
1910
1536
-175
-415
539
1667
3601
3753
1088
-294
161
-427
-997
-499
-478
-810
-576
-366
-616
-824
-971
-1067
-632
-235
-420
-677
-600
-270
-168
-256
-214
-196
81
917
1772
2120
1480
88
-504
-107
-11
-233
-203
-123
-137
-116
-93
-56
32
126
196
287
390
439
476
544
637
735
787
831
917
966
969
997
992
938
920
854
717
651
604
453
336
340
303
158
77
77
-72
-280
-263
67
684
541
-296
11
406
-443
-864
-455
-492
-763
-607
-481
-576
-532
-392
-420
-558
-551
-476
-504
-506
-460
-471
-312
-81
-182
-329
-259
-259
-401
-399
-296
-277
-184
-9
112
189
242
348
492
474
387
476
574
504
432
469
511
495
495
558
541
464
476
520
527
469
401
509
616
474
408
611
667
485
525
880
1354
2031
2784
2749
1499
392
502
854
768
717
808
822
836
906
864
789
819
840
784
731
733
752
710
621
653
749
686
614
724
815
756
710
749
759
607
408
343
324
172
-37
-60
4
-91
-170
-142
-144
-154
-165
-142
-84
-156
-233
-121
-14
-126
-238
-151
-84
-121
-95
-28
-53
-98
-37
58
102
128
130
112
86
49
51
39
-28
-79
-123
-107
-16
-32
-158
-128
-32
-98
-130
-28
35
-9
-130
-196
-74
-2
-221
-425
-294
-151
-270
-366
-308
-289
-336
-387
-326
-203
-277
-373
-287
-315
-481
-422
-268
-331
-415
-348
-273
-312
-448
-443
-137
387
1170
1964
1833
425
-845
-761
-282
-387
-562
-427
-298
-303
-310
-322
-312
-238
-200
-221
-263
-296
-270
-219
-170
-137
-161
-128
-11
58
109
126
137
189
144
46
18
-32
-221
-397
-385
-343
-497
-609
-441
-366
-544
-611
-509
-490
-534
-509
-467
-483
-485
-418
-359
-378
-371
-305
-397
-478
-282
-221
-373
-303
-240
-364
-338
-266
-336
-383
-336
-266
-231
-270
-256
-137
-142
-184
-140
-112
-51
-58
-184
-140
-11
-93
-226
-172
-79
-119
-182
-226
-235
-186
-179
-217
-235
-193
-182
-231
-177
-100
-119
-184
-277
-357
-366
-348
-376
-418
-436
-460
-483
-471
-427
-467
-527
-439
-245
137
889
1679
1574
198
-1046
-966
-642
-920
-1060
-866
-899
-1039
-943
-674
406
2314
3750
4465
3438
385
-1576
-1422
-1223
-1562
-1553
-1216
-917
-665
-567
-415
158
291
-759
-1321
-843
-801
-1039
-843
-880
-1282
-1310
-1167
-1191
-948
-504
-191
277
541
126
-219
-107
-56
-151
-254
-446
-649
-691
-614
-488
-317
-217
-168
-60
0
-219
-432
-114
-149
-794
-903
-787
-922
-941
-973
-1139
-1207
-1153
-1104
-1065
-1030
-994
-938
-892
-889
-875
-812
-756
-740
-530
119
422
-88
-502
-588
-527
-172
282
303
11
210
586
359
-196
-366
-67
200
172
4
-175
-483
-824
-829
-537
-261
-340
-560
-224
-88
-707
-817
-443
-497
-614
-455
-154
406
1275
2006
1688
305
-441
245
957
775
429
317
196
161
214
210
212
242
242
238
219
39
-116
-105
-280
-343
-30
-39
-161
235
418
266
537
838
532
-233
-635
-469
-476
-653
-635
-611
-665
-649
-597
-586
-541
-189
156
-247
-639
-275
-126
-289
411
1263
1015
672
677
130
-621
-726
-495
-457
-350
-305
-567
-588
-387
-226
462
1223
618
-254
518
1314
833
724
936
670
677
672
28
-481
-427
-373
-263
247
413
-91
-336
-186
-214
-284
-224
-312
-483
-387
-235
-284
-371
-425
-399
-282
-247
-172
114
53
-597
-763
-317
-420
-770
-425
42
-67
-343
-401
-273
65
226
-14
-140
-263
-555
-551
-511
-677
-488
289
971
983
917
1328
2139
2791
2340
1130
189
-112
348
319
-721
-600
742
931
319
228
210
392
845
635
210
376
483
401
656
903
866
782
602
504
392
-422
-1125
-815
-544
-719
-635
-44
590
298
-674
-714
105
86
-481
-537
-721
-1156
-1097
-768
-534
-390
-471
-42
901
833
32
-128
-79
-492
-378
362
177
-838
-1069
-546
-621
-1032
-880
-684
-789
-642
-93
441
499
343
506
345
-301
-364
109
-28
-551
-476
-275
-406
-252
84
161
362
602
408
203
340
448
322
154
-98
-534
-768
-696
-614
-383
102
411
378
457
710
532
156
142
67
-53
172
294
172
175
228
177
130
123
102
95
158
413
938
1618
2123
1768
567
-133
46
79
-135
-116
-56
-109
-109
-77
-93
-100
-63
-25
-35
-49
-21
-18
-49
-7
74
121
275
555
674
616
628
665
639
611
567
464
352
249
158
84
37
28
-2
-142
-326
-422
-509
-840
-1022
-644
-691
-1279
-1268
-994
-1109
-1128
-955
-959
-1001
-838
-289
266
49
-140
319
294
-170
-74
184
-14
-462
-910
-1076
-922
-854
-896
-847
-803
-817
-721
-418
-214
-420
-565
-383
-273
-343
-345
-235
-259
-464
-544
-429
-336
-324
-310
-312
-352
-366
-343
-333
-340
-336
-326
-326
-315
-268
-214
-189
-193
-198
-189
-184
-175
-151
-140
-133
-112
-95
-95
-102
-100
-84
-11
275
882
1700
2260
1721
301
-362
-84
-77
-308
-247
-163
-219
-207
-163
-170
-158
-130
-123
-109
-81
-51
-16
16
49
84
126
165
214
266
310
326
329
324
310
268
196
109
21
-46
-91
-123
-144
-156
-163
-161
-149
-137
-126
-121
-140
-140
-112
-93
-86
-81
-74
-60
-53
-53
-42
-35
-39
-42
-35
-30
-53
-107
-128
-128
-161
-175
-144
-135
-144
-135
-128
-135
-135
-144
-161
-175
-205
-228
-207
-191
-207
-203
-177
-168
-170
-161
-144
-137
-137
-123
-102
-95
-98
-88
-65
-56
-53
-44
-39
-42
-44
-53
-49
-18
21
49
60
53
35
21
21
25
30
42
51
46
49
58
60
51
60
219
665
1401
2200
2319
1184
-56
-163
70
-114
-219
-116
-121
-165
-130
-100
-93
-77
-74
-91
-88
-67
-51
-28
-2
-4
-11
23
77
109
140
172
193
196
198
191
142
56
-28
-81
-128
-175
-203
-212
-217
-219
-210
-193
-177
-168
-165
-168
-163
-144
-126
-119
-112
-102
-95
-84
-77
-79
-72
-53
-53
-53
-32
-21
-35
-32
-7
0
-21
-49
-67
-70
-67
-63
-51
-44
-53
-58
-67
-88
-107
-107
-102
-107
-105
-95
-86
-86
-88
-81
-70
-60
-58
-51
-42
-65
-102
-93
-51
-56
-70
-23
2
-65
-107
-84
-88
-98
-44
7
9
-14
-35
-44
-51
-49
-51
-60
-53
-46
-51
-25
-11
-77
-121
4
357
952
1700
2078
1356
114
-200
147
105
-70
-21
4
-37
-16
39
49
46
84
88
84
133
170
126
121
238
284
200
210
376
448
352
308
315
275
256
242
163
65
-2
-77
-172
-233
-240
-238
-247
-245
-228
-219
-210
-203
-200
-193
-177
-154
-130
-123
-119
-109
-100
-88
-77
-70
-60
-58
-56
-51
-56
-60
-60
-60
-58
-51
-37
-28
-30
-42
-70
-88
-84
-88
-102
-116
-128
-119
-109
-102
-95
-98
-95
-74
-67
-65
-53
-53
-60
-44
-25
-28
-30
-25
-14
-7
-4
2
7
2
-11
-14
21
74
93
74
63
39
-14
-37
-21
-21
-25
-14
-2
4
11
7
-2
67
357
938
1693
2186
1648
345
-233
39
70
-116
-74
-14
-58
-49
-9
-25
-44
-18
9
23
39
58
86
121
151
186
224
252
284
326
366
387
394
392
369
317
252
172
91
14
-44
-74
-88
-107
-119
-119
-119
-114
-105
-86
-74
-81
-88
-81
-93
-123
-126
-107
-109
-109
-91
-79
-88
-93
-84
-93
-142
-179
-170
-161
-172
-161
-142
-142
-151
-161
-158
-161
-175
-175
-172
-200
-235
-240
-233
-235
-228
-219
-217
-214
-200
-184
-179
-179
-177
-165
-154
-154
-156
-151
-140
-135
-135
-126
-121
-130
-135
-140
-149
-137
-95
-60
-53
-70
-79
-88
-107
-114
-100
-86
-84
-79
-67
-56
-46
-49
-42
93
509
1216
2020
2237
1226
-46
-219
77
-70
-238
-144
-109
-154
-128
-88
-79
-58
-28
-7
2
-2
9
53
91
114
144
189
233
268
308
345
357
355
355
338
289
214
133
60
4
-39
-63
-79
-98
-107
-93
-72
-67
-70
-53
-37
-35
-37
-25
-11
-14
-16
2
18
14
9
16
21
21
14
4
-2
-4
-4
7
14
9
7
11
4
-14
-21
-18
-30
-46
-46
-37
-32
-35
-51
-67
-93
-116
-112
-95
-112
-144
-135
-112
-130
-161
-149
-126
-128
-128
-107
-91
-93
-91
-70
-56
-63
-65
-65
-79
-88
-63
-21
-16
-39
-56
-65
-63
-51
-39
-30
-25
-23
-14
4
7
-9
37
310
889
1676
2258
1821
467
-273
-23
72
-135
-128
-58
-98
-98
-53
-46
-39
-23
-16
0
11
18
28
28
18
14
25
72
116
135
165
203
210
200
189
154
81
-9
-84
-142
-198
-245
-263
-263
-263
-263
-249
-231
-224
-217
-191
-175
-186
-184
-158
-137
-123
-112
-100
-93
-93
-86
-63
-49
-56
-58
-51
-60
-60
-39
-32
-37
-39
-28
-4
-2
-23
-35
-32
-39
-42
-30
-28
-44
-56
-42
-25
-25
-37
-56
-67
-65
-60
-42
-30
-72
-109
-79
-44
-49
-58
-56
-42
-25
-16
-4
2
-9
-18
-11
9
39
84
109
98
72
63
67
72
72
79
93
95
98
112
112
93
102
242
632
1268
1952
2127
1237
86
-93
186
86
-42
35
56
18
32
58
70
88
105
114
121
128
144
172
205
240
266
275
305
352
376
399
427
427
406
383
331
219
67
-39
-86
-156
-240
-259
-249
-268
-270
-240
-226
-221
-205
-200
-207
-205
-179
-154
-149
-154
-142
-126
-123
-123
-119
-112
-114
-128
-133
-126
-123
-128
-126
-116
-109
-116
-126
-137
-149
-161
-163
-158
-158
-170
-165
-161
-182
-189
-172
-177
-193
-184
-168
-165
-179
-203
-207
-191
-184
-186
-177
-168
-168
-161
-151
-154
-170
-175
-147
-93
-56
-49
-51
-60
-65
-49
-32
-28
-32
-37
-25
-37
-77
-84
-65
-35
165
670
1392
2006
1800
609
-249
-98
74
-93
-119
-49
-77
-70
-18
-14
-14
18
46
56
77
116
149
165
182
212
249
284
322
359
390
413
425
422
383
303
228
156
67
-7
-53
-93
-126
-135
-133
-128
-130
-128
-105
-86
-84
-72
-53
-44
-39
-30
-30
-39
-37
-30
-23
-18
-18
-16
-9
-21
-63
-88
-79
-77
-86
-79
-67
-65
-63
-51
-46
-60
-72
-65
-67
-84
-88
-84
-79
-74
-67
-63
-77
-98
-91
-72
-67
-67
-60
-49
-46
-46
-46
-63
-98
-137
-151
-142
-147
-149
-109
-60
-39
-42
-35
-25
-37
-44
-23
-9
-9
-4
7
11
4
2
4
28
203
681
1448
2209
2151
913
-161
-105
105
-77
-123
-23
-51
-86
-39
-28
-63
-58
-25
-14
-2
32
72
102
123
144
186
235
268
294
333
359
359
364
364
322
242
154
77
9
-60
-121
-147
-163
-177
-168
-147
-142
-140
-123
-102
-95
-88
-65
-51
-56
-53
-32
-23
-30
-42
-53
-49
-39
-32
-25
-30
-35
-23
-9
-7
-7
-16
-28
-32
-35
-23
-9
-14
-21
-14
-11
-25
-32
-37
-58
-93
-112
-95
-91
-119
-137
-133
-130
-140
-137
-123
-109
-102
-100
-88
-74
-77
-77
-60
-49
-70
-93
-93
-84
-60
-9
21
9
-9
-18
-14
-4
2
14
18
11
9
25
32
7
-16
86
443
1069
1833
2202
1438
135
-238
65
23
-135
-63
-25
-77
-58
-16
-9
4
28
44
70
95
114
142
172
200
231
270
319
352
364
392
422
394
298
228
193
105
-9
-72
-123
-189
-233
-249
-254
-268
-287
-280
-259
-247
-238
-214
-196
-189
-182
-163
-149
-147
-142
-130
-121
-126
-133
-123
-121
-133
-133
-116
-107
-107
-105
-102
-100
-109
-121
-121
-121
-126
-126
-121
-126
-126
-114
-121
-151
-165
-163
-172
-179
-182
-184
-186
-189
-200
-207
-198
-198
-198
-175
-163
-168
-158
-142
-154
-184
-182
-158
-165
-186
-175
-147
-123
-98
-91
-95
-100
-100
-84
-60
-58
-60
-44
-25
-18
-11
-14
-44
-21
214
738
1476
2125
1908
660
-224
-77
88
-81
-109
-37
-53
-51
-7
-4
-2
32
53
67
100
133
144
163
205
242
277
315
348
378
404
415
429
439
413
357
291
212
119
42
-11
-53
-81
-93
-91
-91
-93
-93
-100
-112
-109
-91
-84
-95
-119
-123
-102
-93
-98
-86
-67
-63
-67
-65
-60
-56
-53
-39
-21
-30
-51
-39
-25
-37
-35
-16
-14
-21
-16
-14
-25
-37
-46
-49
-46
-46
-42
-37
-60
-107
-119
-91
-81
-95
-100
-86
-77
-77
-65
-44
-46
-49
-35
-18
-11
-14
-7
4
7
4
9
7
-2
4
30
58
65
46
35
32
35
39
49
44
0
-44
-39
-28
-30
-37
-37
63
411
1060
1873
2272
1487
140
-252
49
4
-154
-88
-63
-102
-67
-30
-35
-23
7
28
46
72
98
123
151
175
200
226
247
275
317
362
383
380
378
357
289
203
128
58
-11
-67
-102
-128
-147
-140
-123
-130
-149
-151
-135
-126
-126
-114
-98
-95
-88
-63
-60
-93
-98
-72
-72
-98
-102
-95
-98
-119
-151
-151
-133
-140
-154
-147
-140
-151
-161
-156
-154
-154
-142
-128
-126
-121
-112
-102
-95
-91
-88
-84
-74
-77
-81
-58
-49
-65
-56
-25
-25
-30
-14
-7
-16
-9
16
23
21
21
25
32
32
35
42
28
-11
-21
25
77
79
56
53
53
49
51
49
39
37
37
51
63
56
49
51
109
373
917
1644
2167
1695
373
-282
-25
32
-156
-130
-88
-170
-165
-95
-98
-109
-72
-32
-7
9
9
21
58
98
133
177
217
256
303
343
369
385
383
357
308
235
147
44
-58
-116
-142
-191
-231
-221
-226
-266
-282
-263
-240
-231
-235
-233
-235
-235
-221
-224
-240
-235
-221
-221
-219
-210
-212
-221
-224
-233
-242
-240
-245
-261
-252
-228
-224
-231
-226
-217
-219
-245
-249
-219
-212
-217
-189
-170
-186
-186
-163
-151
-144
-123
-100
-95
-91
-72
-58
-49
-39
-32
-23
-4
7
7
16
21
2
-2
42
95
105
93
86
51
18
35
46
37
32
32
39
49
53
53
39
74
315
824
1511
2083
1831
651
-142
11
137
-32
-44
21
-11
-14
30
28
28
63
86
93
119
144
165
184
210
233
259
273
280
312
355
383
401
408
387
336
259
172
81
-2
-67
-112
-140
-156
-154
-149
-158
-161
-140
-119
-114
-112
-116
-130
-133
-119
-114
-130
-140
-142
-130
-114
-114
-121
-112
-100
-102
-114
-116
-133
-186
-226
-207
-186
-191
-191
-182
-172
-170
-161
-144
-140
-140
-123
-112
-107
-95
-91
-105
-114
-102
-86
-72
-70
-74
-63
-39
-42
-44
-25
-25
-63
-81
-60
-46
-53
-51
-37
-30
-35
-39
-39
-23
18
60
67
63
53
25
-2
-14
-16
-11
0
-2
-7
7
23
9
0
119
509
1193
2008
2337
1443
86
-242
72
7
-154
-81
-49
-91
-70
-35
-28
-11
9
25
51
81
93
98
121
154
184
219
263
303
333
364
390
401
397
376
317
226
137
65
2
-53
-109
-128
-130
-168
-207
-196
-175
-175
-170
-149
-126
-119
-130
-147
-147
-137
-130
-123
-130
-140
-130
-109
-102
-114
-121
-105
-91
-102
-112
-114
-130
-142
-135
-128
-126
-123
-121
-114
-109
-107
-95
-84
-91
-91
-86
-95
-98
-86
-81
-79
-70
-63
-49
-37
-42
-44
-21
-9
-16
-9
2
0
4
14
18
23
25
25
37
49
49
46
46
25
-18
-42
-44
-49
-42
-23
-28
-67
-109
-114
-105
-100
-93
-81
-63
-58
-63
-53
-30
-30
-49
2
254
810
1630
2321
1987
581
-308
-100
35
-179
-182
-95
-149
-177
-121
-102
-107
-86
-63
-46
-28
-7
18
44
65
91
126
168
200
226
259
284
294
296
282
240
163
70
-9
-79
-147
-193
-221
-245
-263
-270
-259
-256
-280
-282
-252
-252
-289
-289
-261
-261
-266
-245
-226
-221
-219
-203
-182
-177
-177
-177
-177
-184
-191
-184
-168
-165
-165
-154
-142
-137
-135
-142
-147
-135
-121
-105
-93
-91
-88
-70
-58
-53
-42
-30
-28
-23
-11
2
16
23
18
23
37
44
53
65
60
56
70
84
86
88
81
63
63
72
74
60
28
14
39
51
39
35
39
16
-28
-23
35
70
56
42
51
53
46
53
63
63
67
79
86
88
84
77
72
135
436
1069
1896
2370
1686
301
-214
77
65
-116
-63
-16
-60
-44
-2
-7
-2
32
60
67
81
112
140
158
184
219
233
226
240
287
317
324
331
333
308
259
200
109
-21
-123
-163
-189
-219
-233
-235
-235
-228
-226
-231
-238
-268
-303
-287
-263
-273
-270
-252
-252
-254
-242
-228
-224
-231
-240
-235
-214
-214
-224
-221
-212
-203
-189
-177
-179
-179
-172
-158
-149
-147
-149
-142
-130
-128
-126
-121
-121
-126
-116
-98
-95
-88
-67
-70
-79
-77
-77
-74
-63
-56
-49
-39
-30
-23
-30
-49
-53
-37
-25
-18
-9
-2
9
18
28
42
49
35
16
23
58
107
135
130
119
119
105
93
95
58
16
25
42
37
39
51
49
58
219
642
1296
1978
2057
1055
-28
-95
154
30
-60
7
9
-2
25
37
46
74
88
102
135
156
154
158
191
242
273
301
348
394
425
432
422
406
387
355
291
207
109
0
-77
-121
-172
-214
-233
-259
-270
-259
-242
-238
-235
-221
-200
-196
-198
-182
-161
-161
-156
-135
-128
-128
-119
-112
-109
-126
-156
-154
-130
-130
-137
-119
-95
-88
-95
-95
-84
-93
-123
-119
-93
-95
-105
-81
-51
-44
-58
-63
-49
-44
-44
-23
-11
-16
-18
-4
0
-11
-30
-35
-23
-25
-32
-25
-28
-49
-46
-11
25
39
35
25
11
-2
7
18
7
-9
-18
-25
-28
-23
-23
-42
-2
261
796
1483
1994
1641
429
-298
-109
-7
-177
-191
-175
-221
-198
-163
-175
-163
-116
-95
-84
-49
-7
21
44
74
109
137
170
214
263
303
329
357
366
338
287
219
130
32
-63
-135
-170
-189
-212
-219
-219
-231
-228
-203
-186
-186
-172
-151
-147
-149
-147
-144
-156
-168
-156
-137
-135
-137
-135
-130
-126
-119
-107
-95
-93
-100
-95
-74
-65
-67
-58
-49
-49
-44
-28
-14
-16
-18
-7
-2
-30
-56
-49
-32
-35
-44
-35
-18
-21
-21
-4
7
9
16
25
18
14
18
18
-4
-25
0
53
72
53
53
60
46
39
56
70
70
70
70
72
84
81
58
109
392
987
1810
2389
1863
455
-228
35
86
-121
-93
-39
-130
-147
-79
-72
-79
-46
-23
-11
11
44
70
88
109
147
186
217
254
287
294
284
263
256
247
191
107
30
-42
-119
-175
-200
-228
-254
-249
-240
-268
-294
-280
-254
-242
-235
-219
-207
-207
-205
-186
-168
-165
-168
-168
-175
-198
-212
-205
-198
-207
-210
-200
-196
-196
-198
-210
-214
-217
-224
-214
-200
-212
-210
-182
-165
-163
-156
-149
-142
-130
-119
-109
-100
-91
-81
-67
-60
-65
-63
-49
-44
-39
-23
-11
-14
-25
-30
-21
-11
-9
-4
0
-9
-14
-7
-11
-39
-51
-30
-16
-9
4
11
16
14
46
266
810
1604
2279
2024
700
-228
-74
98
-93
-128
-44
-56
-60
-23
-18
-9
25
46
60
86
119
144
168
203
233
263
305
343
380
422
453
469
467
420
355
294
200
88
23
-16
-74
-116
-112
-109
-130
-126
-95
-81
-81
-74
-67
-63
-56
-53
-70
-81
-74
-60
-51
-67
-109
-121
-98
-91
-91
-86
-86
-91
-100
-95
-84
-105
-130
-116
-98
-112
-126
-107
-95
-105
-105
-86
-74
-72
-67
-70
-84
-93
-95
-100
-100
-102
-105
-100
-88
-86
-88
-93
-105
-116
-112
-98
-93
-105
-116
-116
-100
-67
-25
-21
-46
-58
-51
-51
-65
-65
-51
-49
-63
-84
-105
-102
-105
-116
2
380
997
1695
1959
1149
-65
-352
-60
-126
-301
-259
-212
-238
-221
-177
-163
-149
-119
-81
-49
-18
2
32
77
116
149
198
247
284
324
369
401
404
387
362
312
226
121
28
-42
-95
-126
-135
-144
-151
-147
-137
-123
-107
-95
-81
-72
-63
-49
-28
-14
-11
-11
4
16
7
-14
-14
-9
-18
-11
4
7
-2
-14
-21
-14
-4
2
-4
-37
-72
-63
-46
-51
-51
-39
-35
-28
-23
-35
-44
-51
-65
-60
-44
-49
-53
-49
-42
-37
-30
-23
-21
-21
-21
-30
-39
-30
-16
-16
-16
-9
0
2
-16
-32
-7
44
77
79
77
67
46
39
60
72
60
58
70
74
60
44
42
16
9
245
854
1695
2319
1887
476
-326
-98
9
-191
-189
-114
-144
-137
-93
-88
-84
-58
-63
-81
-56
-18
-7
16
56
91
128
165
200
235
273
301
315
317
289
224
156
79
-9
-81
-137
-182
-205
-214
-219
-219
-221
-219
-198
-184
-184
-179
-168
-163
-158
-147
-140
-140
-144
-140
-140
-154
-163
-154
-147
-149
-154
-156
-163
-175
-172
-156
-142
-137
-126
-114
-109
-109
-112
-112
-114
-123
-128
-123
-109
-102
-95
-91
-109
-140
-140
-121
-112
-112
-98
-79
-77
-77
-74
-74
-72
-65
-49
-32
-25
-21
-11
-2
2
7
25
39
32
30
39
28
14
39
86
114
114
109
107
95
88
102
105
79
56
60
56
39
39
49
49
98
357
948
1789
2403
1922
520
-214
25
98
-95
-72
-7
-56
-53
-7
0
9
39
56
63
86
121
144
158
182
219
233
212
217
275
312
317
333
350
331
282
214
135
58
-9
-63
-100
-130
-147
-142
-133
-135
-133
-123
-121
-144
-170
-151
-126
-133
-151
-172
-189
-184
-179
-184
-182
-175
-161
-151
-168
-182
-175
-175
-179
-182
-184
-184
-172
-165
-165
-147
-137
-149
-147
-133
-128
-126
-116
-116
-116
-107
-98
-91
-91
-95
-100
-98
-95
-93
-88
-86
-88
-81
-67
-60
-63
-70
-72
-77
-107
-126
-116
-114
-121
-105
-74
-74
-93
-84
-67
-70
-77
-63
-53
-49
-25
-4
-16
-30
-32
-39
-35
-11
4
2
4
21
39
44
49
53
46
77
312
826
1527
2137
1922
696
-168
2
170
-14
-42
32
14
9
39
37
25
44
70
95
126
144
161
191
224
254
294
336
373
413
450
474
490
497
488
432
326
196
98
39
-30
-112
-161
-170
-175
-191
-200
-196
-207
-226
-221
-210
-212
-221
-221
-212
-207
-193
-179
-179
-172
-163
-161
-147
-137
-140
-135
-121
-114
-102
-88
-93
-93
-70
-56
-58
-51
-32
-25
-35
-32
-25
-18
-14
-9
4
18
11
14
37
35
25
39
56
42
-7
-30
2
23
9
16
28
14
18
37
39
30
30
35
30
-9
-60
-53
-2
2
-37
-44
-32
-51
-58
-32
-28
-32
-21
-14
-28
-32
-16
-9
9
184
637
1303
1917
1861
808
-154
-140
49
-102
-151
-74
-102
-142
-123
-112
-105
-86
-77
-67
-42
-18
0
23
51
86
121
154
203
254
289
305
326
348
340
298
233
147
56
-28
-86
-121
-158
-205
-221
-219
-238
-247
-221
-226
-280
-319
-301
-275
-284
-298
-287
-263
-256
-259
-235
-219
-221
-212
-191
-186
-184
-172
-161
-154
-144
-128
-116
-114
-112
-95
-74
-70
-81
-79
-58
-44
-46
-35
-14
-14
-23
-7
14
18
23
30
35
39
49
60
63
51
56
77
84
77
72
79
88
91
88
95
102
95
77
60
56
60
91
119
100
67
74
81
53
14
-4
9
21
18
25
35
35
30
25
67
296
808
1553
2225
2024
752
-177
-44
114
-86
-128
-46
-74
-98
-60
-46
-77
-88
-63
-37
-23
0
35
70
93
114
154
205
245
284
326
350
355
362
357
322
254
163
70
-2
-63
-116
-168
-203
-212
-207
-210
-221
-231
-247
-263
-256
-242
-231
-219
-219
-228
-226
-221
-235
-249
-249
-254
-284
-312
-305
-296
-303
-298
-282
-275
-275
-273
-270
-282
-294
-280
-254
-245
-245
-228
-210
-203
-196
-179
-170
-163
-142
-116
-105
-107
-95
-77
-65
-53
-39
-25
-16
-11
-4
7
18
18
18
32
44
37
37
53
56
44
42
39
44
70
88
88
79
70
70
77
79
74
79
95
100
98
102
116
114
100
121
291
738
1480
2298
2396
1219
-30
-119
144
-39
-175
-74
-65
-119
-81
-37
-37
-23
4
25
46
67
93
126
156
177
203
247
294
326
362
394
413
415
411
383
324
235
130
42
-18
-63
-93
-109
-126
-128
-116
-105
-109
-126
-121
-98
-86
-81
-84
-93
-91
-79
-65
-58
-65
-65
-53
-49
-60
-72
-74
-86
-102
-112
-119
-144
-186
-193
-175
-165
-165
-151
-140
-163
-196
-186
-156
-151
-154
-140
-123
-114
-107
-91
-74
-74
-67
-49
-42
-32
-21
-18
-16
-7
0
4
2
-14
-16
7
18
16
23
35
37
25
16
14
23
39
67
86
77
65
63
67
72
72
77
86
86
81
88
98
95
88
154
446
1055
1875
2415
1833
413
-235
51
98
-107
-74
-7
-56
-51
-9
-7
2
30
42
56
63
49
56
95
116
135
177
221
256
291
326
355
371
366
331
280
210
121
44
-7
-60
-114
-140
-144
-151
-151
-156
-175
-182
-168
-149
-149
-158
-154
-140
-135
-130
-121
-102
-93
-105
-116
-114
-123
-144
-156
-170
-177
-165
-151
-147
-147
-147
-137
-121
-119
-119
-102
-100
-102
-93
-74
-63
-63
-63
-51
-46
-44
-35
-25
-32
-60
-79
-65
-56
-63
-63
-63
-70
-65
-49
-44
-51
-49
-23
-4
-2
0
7
14
14
9
0
-35
-63
-42
4
42
58
49
37
18
-16
-35
-23
-16
-18
-11
0
-7
-18
-16
-16
2
186
642
1319
1999
1971
843
-172
-123
88
-79
-135
-60
-81
-91
-44
-39
-53
-23
7
14
32
56
72
93
123
156
198
233
240
270
317
317
289
287
287
242
168
86
-11
-107
-177
-221
-254
-294
-329
-340
-338
-331
-317
-303
-305
-310
-298
-270
-242
-231
-221
-200
-193
-214
-221
-214
-221
-235
-217
-196
-203
-207
-182
-170
-175
-163
-147
-135
-121
-114
-109
-98
-86
-79
-63
-56
-60
-53
-28
-11
-9
-7
-7
-2
11
21
4
-11
-9
7
21
25
25
32
32
16
-7
-7
2
0
2
4
-2
-4
11
42
65
53
39
42
51
49
44
53
67
67
67
72
56
37
39
84
296
791
1487
2090
1901
717
-165
-28
137
-46
-65
25
-9
-37
7
30
30
46
72
93
100
116
151
191
212
226
256
301
329
357
397
425
429
425
411
373
305
210
112
32
-25
-70
-98
-137
-196
-214
-198
-219
-245
-219
-196
-221
-249
-242
-228
-228
-224
-207
-191
-186
-189
-186
-184
-193
-200
-198
-203
-217
-224
-212
-200
-200
-196
-184
-184
-189
-179
-163
-158
-156
-156
-154
-142
-140
-135
-126
-126
-128
-116
-102
-102
-116
-130
-133
-130
-128
-123
-116
-121
-121
-112
-102
-107
-107
-95
-86
-91
-91
-93
-98
-91
-51
-18
-35
-51
-44
-49
-49
-32
-21
-9
0
0
-2
0
-16
-58
-79
16
348
983
1824
2323
1651
240
-312
-9
11
-175
-128
-72
-112
-95
-46
-35
-30
-11
16
44
63
86
119
149
170
203
242
266
284
317
357
385
397
387
369
324
240
154
84
18
-37
-79
-102
-109
-114
-109
-100
-95
-95
-105
-116
-112
-100
-88
-74
-63
-63
-63
-65
-79
-88
-74
-60
-63
-70
-72
-77
-116
-154
-149
-149
-168
-161
-142
-142
-140
-128
-123
-121
-114
-100
-88
-84
-88
-81
-63
-56
-56
-46
-35
-32
-35
-35
-25
-23
-37
-30
-16
-42
-79
-70
-51
-60
-56
-32
-16
-18
-25
-21
-18
-32
-37
2
44
53
35
7
-4
-4
-11
-4
4
0
-9
-18
-23
-16
-11
-18
-14
112
511
1226
2055
2281
1256
-51
-291
-39
-149
-266
-191
-189
-226
-189
-163
-165
-140
-114
-109
-93
-60
-32
-16
2
18
32
60
105
154
191
212
231
247
245
210
151
81
-2
-81
-128
-151
-189
-217
-212
-198
-196
-184
-158
-147
-147
-149
-147
-128
-114
-112
-102
-93
-100
-98
-81
-88
-107
-95
-70
-65
-81
-84
-63
-53
-63
-60
-60
-74
-86
-81
-67
-65
-74
-74
-67
-81
-116
-119
-98
-100
-109
-86
-60
-65
-81
-72
-58
-53
-51
-42
-30
-23
-18
-9
0
4
16
25
21
21
39
56
58
51
58
77
84
81
84
84
65
32
18
51
98
116
107
93
81
72
81
95
91
93
102
98
95
102
114
105
95
198
551
1181
1945
2291
1511
217
-151
137
93
-58
0
28
-9
-11
-37
-63
-46
-51
-74
-58
-25
-4
25
65
98
128
175
226
268
303
340
371
385
373
350
312
231
123
42
-18
-67
-100
-128
-149
-172
-200
-207
-191
-191
-196
-177
-161
-175
-175
-149
-133
-133
-130
-114
-98
-98
-114
-128
-128
-130
-133
-133
-130
-126
-123
-119
-102
-95
-105
-100
-79
-70
-72
-72
-67
-72
-79
-70
-51
-49
-58
-46
-23
-25
-23
-7
-23
-63
-72
-46
-30
-39
-32
-18
-16
-11
9
18
14
14
28
44
49
46
39
16
-16
-28
-21
-11
14
49
67
67
58
49
46
58
65
60
74
81
70
67
88
93
79
107
319
805
1480
2055
1873
745
-126
-18
161
4
-37
16
-16
-35
-4
18
35
44
49
79
116
126
137
168
198
224
254
298
343
373
408
436
441
411
364
322
259
151
51
-14
-65
-119
-172
-214
-240
-240
-231
-233
-247
-245
-221
-200
-191
-182
-170
-158
-158
-158
-151
-158
-179
-182
-163
-151
-161
-168
-161
-165
-196
-221
-210
-193
-196
-189
-179
-191
-196
-182
-168
-161
-151
-142
-123
-116
-128
-121
-95
-88
-95
-86
-72
-67
-67
-60
-51
-46
-49
-37
-28
-30
-30
-28
-35
-63
-91
-88
-72
-91
-128
-144
-128
-119
-121
-121
-128
-147
-154
-128
-77
-49
-51
-63
-63
-70
-77
-70
-70
-70
-56
-46
-46
-42
-35
-35
-39
14
280
854
1637
2221
1805
478
-268
-53
44
-135
-126
-56
-81
-77
-46
-42
-25
7
25
44
67
91
114
144
177
207
235
275
322
364
399
425
439
436
408
357
282
184
67
-25
-72
-135
-212
-238
-228
-238
-238
-217
-198
-193
-189
-179
-175
-177
-177
-172
-168
-170
-161
-142
-133
-137
-137
-123
-112
-114
-114
-121
-133
-130
-114
-100
-93
-91
-86
-72
-63
-58
-49
-44
-49
-42
-23
-14
-11
-9
-7
2
14
18
28
37
32
30
44
56
60
58
58
49
37
37
37
21
-4
-4
16
25
28
30
32
23
-4
-21
-9
-21
-67
-81
-56
-63
-79
-51
0
25
30
30
39
37
18
25
42
30
23
39
44
39
46
60
53
49
175
595
1324
2144
2361
1338
30
-184
112
11
-121
-49
-37
-70
-35
-14
-16
7
28
35
58
91
112
123
135
158
193
226
249
259
277
310
340
352
345
319
266
189
95
2
-65
-126
-212
-273
-259
-245
-263
-263
-247
-254
-261
-254
-249
-245
-247
-256
-249
-233
-228
-221
-212
-210
-198
-177
-170
-177
-170
-151
-149
-147
-137
-130
-121
-109
-102
-95
-79
-70
-72
-60
-39
-37
-30
-16
-21
-23
-7
-7
-23
-23
-9
0
0
0
-4
-23
-32
-25
-18
-7
7
11
9
16
28
28
35
44
37
39
56
67
72
65
65
70
67
65
70
49
-11
-42
7
56
42
23
39
44
25
28
46
49
35
39
58
70
67
63
53
77
298
808
1513
2113
1880
672
-161
-11
123
-46
-63
-4
-35
-42
-14
-11
-7
18
42
58
60
51
51
49
44
93
156
172
189
249
317
338
333
338
324
268
198
121
21
-77
-142
-191
-245
-294
-329
-352
-357
-348
-343
-340
-326
-312
-303
-305
-331
-343
-326
-312
-322
-317
-294
-284
-289
-277
-270
-270
-256
-247
-240
-231
-238
-242
-217
-196
-205
-212
-219
-226
-221
-210
-186
-168
-175
-170
-144
-137
-140
-142
-147
-140
-121
-105
-84
-81
-74
-51
-58
-63
-28
-7
-16
-14
7
11
4
7
23
53
74
70
63
53
46
67
79
67
79
95
77
77
107
114
100
133
336
780
1392
1908
1751
738
-79
-14
126
-37
-58
16
-16
-28
18
21
4
21
39
56
79
102
130
163
186
207
252
305
336
348
369
401
418
422
413
369
284
184
100
23
-53
-107
-135
-165
-193
-200
-191
-196
-214
-203
-179
-168
-163
-151
-149
-156
-158
-158
-151
-144
-144
-137
-128
-130
-133
-128
-126
-130
-126
-107
-102
-109
-112
-102
-107
-142
-151
-126
-119
-130
-133
-126
-135
-168
-177
-151
-140
-135
-116
-100
-100
-98
-79
-63
-63
-86
-100
-86
-79
-93
-98
-86
-63
-23
11
11
0
-7
-14
-9
-4
-11
-21
-28
-32
-30
-16
-14
-30
-7
205
754
1592
2361
2197
824
-273
-182
23
-184
-238
-142
-175
-205
-158
-137
-140
-123
-112
-93
-67
-46
-28
-7
-9
-28
-14
37
91
130
165
205
235
245
238
214
154
67
-7
-65
-128
-196
-224
-221
-224
-221
-203
-182
-179
-170
-147
-123
-112
-107
-98
-88
-95
-95
-74
-60
-63
-60
-44
-32
-37
-51
-53
-44
-42
-42
-30
-23
-25
-28
-25
-37
-49
-56
-67
-67
-67
-63
-53
-51
-58
-53
-37
-32
-42
-46
-37
-32
-32
-21
-2
-9
-25
-30
-35
-51
-46
-7
16
0
-4
2
-11
-32
-35
-21
-9
-7
4
16
14
7
9
79
362
966
1793
2361
1835
432
-266
-2
56
-154
-116
-39
-86
-84
-39
-30
-23
2
25
46
63
81
112
147
172
198
235
266
266
261
296
333
336
317
291
235
158
79
2
-67
-112
-135
-147
-158
-168
-161
-140
-128
-123
-109
-98
-93
-81
-72
-91
-107
-100
-88
-84
-100
-128
-126
-112
-112
-109
-98
-102
-114
-112
-95
-84
-79
-70
-60
-58
-56
-42
-25
-18
-18
-18
-4
7
9
11
18
7
-14
-7
11
11
0
0
11
21
14
0
-7
-23
-49
-53
-49
-67
-84
-67
-32
2
14
9
0
-18
-23
-7
-2
-9
-7
4
11
7
-7
-28
-35
44
357
976
1765
2188
1480
161
-277
14
-9
-175
-142
-156
-207
-156
-114
-123
-98
-56
-44
-32
2
42
70
91
116
163
205
240
287
333
355
371
397
397
357
298
226
142
56
-23
-86
-137
-165
-161
-151
-158
-158
-140
-121
-119
-109
-86
-74
-77
-63
-42
-35
-42
-39
-23
-16
-21
-30
-46
-60
-65
-63
-49
-32
-35
-37
-35
-42
-46
-37
-28
-35
-63
-84
-67
-51
-51
-46
-35
-30
-30
-21
-16
-37
-49
-35
-30
-51
-86
-95
-88
-95
-105
-98
-100
-123
-130
-133
-158
-179
-147
-93
-70
-77
-84
-81
-81
-79
-72
-65
-58
-49
-37
-32
-28
-25
-32
-7
172
611
1275
1933
1936
880
-163
-179
46
-100
-161
-72
-93
-130
-88
-60
-58
-37
-2
21
30
51
86
121
149
177
212
245
252
259
301
340
340
338
343
310
238
151
67
-2
-60
-105
-128
-142
-163
-177
-165
-151
-147
-135
-119
-109
-102
-86
-63
-53
-58
-51
-32
-30
-28
-14
-11
-18
-16
-4
4
2
-4
2
0
-21
-28
-11
-9
-18
-23
-28
-28
-23
-21
-16
-7
-7
-14
-21
-25
-25
-18
-9
-4
-7
-7
-4
-16
-30
-30
-39
-86
-130
-128
-109
-114
-123
-114
-102
-100
-100
-100
-109
-119
-114
-109
-119
-114
-77
-28
-9
-16
-18
-14
-18
-21
-9
2
7
9
16
21
28
25
21
46
214
658
1394
2153
2151
966
-170
-193
32
-135
-205
-107
-121
-156
-109
-77
-77
-60
-35
-30
-42
-44
-9
30
51
74
116
163
200
245
289
312
324
336
331
303
245
161
77
2
-70
-116
-140
-191
-249
-249
-219
-217
-214
-191
-172
-165
-154
-128
-109
-114
-107
-84
-70
-70
-67
-58
-46
-44
-42
-28
-23
-37
-63
-88
-91
-84
-98
-105
-95
-88
-81
-67
-65
-84
-88
-84
-93
-100
-93
-91
-91
-84
-74
-65
-67
-72
-60
-46
-46
-42
-32
-30
-37
-35
-18
-9
-11
-23
-35
-32
-21
-16
-9
-4
-4
2
18
25
18
14
14
-16
-60
-44
18
39
25
25
28
16
18
30
32
32
42
51
56
49
25
2
-9
51
343
955
1779
2314
1721
331
-273
0
30
-156
-116
-60
-105
-95
-56
-53
-37
-2
9
16
44
81
105
121
147
179
214
249
287
322
333
333
352
364
336
287
231
142
46
-18
-60
-95
-123
-147
-149
-140
-140
-137
-123
-126
-161
-177
-154
-137
-151
-161
-144
-137
-137
-119
-112
-140
-172
-179
-184
-217
-263
-270
-245
-242
-249
-235
-217
-217
-210
-182
-168
-175
-175
-151
-135
-133
-123
-98
-91
-98
-88
-72
-65
-53
-44
-49
-39
-23
-25
-25
-16
-28
-23
4
14
7
14
28
32
30
35
46
60
60
56
60
63
63
74
72
46
44
91
142
144
121
112
105
72
37
28
0
-44
-46
-23
-14
-16
-21
-23
39
294
796
1462
1996
1693
509
-210
-18
86
-81
-72
-11
-46
-46
-4
0
4
35
58
74
91
105
119
133
163
203
242
277
310
348
387
418
429
425
411
371
296
203
114
28
-39
-95
-142
-165
-179
-189
-191
-182
-168
-154
-149
-165
-172
-163
-172
-182
-189
-219
-252
-261
-256
-247
-242
-242
-231
-214
-212
-203
-186
-182
-179
-158
-142
-135
-137
-135
-116
-98
-91
-86
-72
-70
-67
-53
-37
-32
-44
-53
-42
-28
-21
-14
-4
-4
-7
4
18
23
23
30
37
42
44
49
56
56
56
67
79
74
67
56
32
9
23
72
91
70
51
39
30
18
-9
-30
-23
-18
-16
0
4
-11
-21
32
254
759
1529
2190
1880
541
-312
-123
4
-200
-210
-121
-156
-168
-121
-112
-116
-98
-84
-77
-63
-46
-23
7
32
63
98
128
161
200
238
263
270
263
249
214
140
53
-25
-107
-175
-212
-240
-273
-289
-287
-282
-273
-256
-240
-240
-256
-261
-242
-231
-254
-277
-263
-240
-233
-228
-210
-196
-200
-193
-170
-156
-156
-147
-133
-142
-177
-191
-161
-147
-154
-140
-112
-98
-95
-84
-72
-70
-70
-58
-37
-32
-37
-21
-2
0
7
23
23
21
37
60
65
63
60
72
86
91
91
100
102
100
107
123
123
112
102
95
91
107
140
170
165
142
135
130
107
81
79
88
86
86
102
112
98
84
93
205
572
1240
2048
2370
1487
156
-156
144
63
-98
-16
14
-39
-28
-14
-30
-44
-49
-23
9
16
35
77
114
135
165
205
240
277
317
352
376
373
357
338
273
156
58
-2
-70
-128
-154
-168
-182
-189
-191
-205
-214
-207
-191
-186
-182
-165
-161
-182
-193
-191
-191
-191
-198
-203
-191
-184
-184
-177
-165
-158
-158
-163
-149
-130
-128
-123
-107
-100
-95
-86
-91
-102
-100
-91
-81
-77
-70
-53
-51
-86
-116
-93
-70
-74
-70
-56
-49
-42
-30
-9
2
-4
2
21
21
21
32
44
51
53
63
72
63
46
49
56
46
44
63
98
133
126
79
51
49
51
63
67
58
60
72
79
79
79
81
95
231
616
1244
1929
2085
1172
42
-107
151
35
-77
-7
-14
-46
0
28
18
35
67
79
81
109
151
175
193
217
240
263
275
301
350
373
376
401
406
357
291
219
133
46
-32
-98
-149
-186
-196
-186
-179
-182
-179
-172
-175
-189
-198
-189
-168
-163
-161
-149
-137
-133
-144
-154
-156
-161
-168
-161
-151
-156
-151
-140
-135
-137
-130
-130
-140
-140
-128
-119
-116
-112
-95
-81
-79
-79
-74
-84
-107
-126
-112
-88
-95
-102
-77
-60
-70
-60
-37
-51
-98
-105
-77
-67
-77
-79
-81
-107
-123
-81
-25
-11
-23
-18
-14
-30
-37
-25
-11
-23
-53
-49
-28
-37
-53
-53
-28
133
546
1193
1852
1910
929
-119
-200
18
-109
-186
-114
-133
-175
-140
-116
-123
-105
-77
-65
-56
-30
4
35
60
95
126
156
203
256
301
326
343
355
355
319
252
172
86
2
-60
-100
-123
-144
-170
-179
-179
-207
-228
-205
-182
-179
-163
-135
-121
-112
-105
-114
-137
-151
-137
-121
-123
-123
-112
-100
-100
-114
-121
-126
-137
-135
-121
-112
-116
-123
-128
-128
-121
-119
-112
-102
-98
-93
-72
-63
-70
-63
-42
-30
-28
-23
-14
-7
-4
7
21
28
25
30
44
51
51
58
63
60
58
58
35
9
21
67
107
114
102
98
86
46
16
32
51
39
30
42
39
7
-2
11
84
385
1020
1859
2365
1712
303
-259
35
44
-140
-91
-63
-126
-102
-56
-84
-116
-95
-58
-42
-25
9
46
63
84
130
177
212
247
284
319
348
359
359
340
287
207
128
51
-23
-79
-119
-142
-163
-177
-172
-168
-170
-158
-142
-135
-130
-121
-116
-112
-105
-95
-86
-88
-100
-116
-147
-165
-158
-158
-170
-198
-228
-226
-210
-226
-247
-247
-247
-254
-256
-259
-259
-252
-240
-231
-221
-217
-212
-196
-177
-172
-161
-140
-135
-133
-112
-91
-81
-79
-70
-53
-44
-37
-21
-7
-7
-7
11
30
35
30
23
16
16
16
14
11
18
53
105
126
112
102
98
91
100
109
116
119
109
84
67
74
79
70
100
310
826
1625
2372
2209
873
-165
-60
95
-147
-193
-88
-116
-137
-84
-60
-60
-39
-14
11
37
60
91
116
137
168
210
254
289
317
355
390
404
401
392
357
284
205
128
49
-23
-65
-88
-105
-112
-107
-100
-98
-91
-74
-56
-49
-46
-37
-28
-23
-18
-4
4
0
-23
-35
-32
-42
-53
-51
-51
-58
-60
-49
-42
-56
-81
-86
-95
-137
-165
-156
-168
-210
-221
-196
-193
-205
-191
-163
-156
-158
-147
-133
-123
-116
-100
-84
-84
-84
-67
-49
-44
-39
-28
-18
-18
-23
-28
-18
-14
-18
-7
9
14
18
28
30
25
23
18
21
44
81
112
114
100
93
91
79
56
51
65
67
60
63
72
79
72
58
112
392
999
1831
2370
1779
376
-245
37
70
-126
-81
-32
-121
-142
-86
-74
-74
-44
-16
-4
16
46
84
109
126
156
205
245
277
312
340
343
340
343
333
287
207
126
53
-14
-65
-95
-121
-142
-147
-135
-121
-119
-114
-102
-98
-105
-102
-88
-88
-107
-119
-105
-88
-95
-114
-116
-121
-144
-149
-135
-142
-151
-142
-126
-121
-128
-126
-112
-107
-112
-100
-86
-88
-93
-79
-60
-58
-60
-53
-53
-77
-102
-91
-74
-81
-79
-58
-42
-42
-49
-51
-39
-30
-25
-11
0
-4
-4
16
28
25
28
35
37
42
53
58
51
32
16
23
35
37
46
44
14
-16
-14
4
0
-16
-23
-14
-9
-2
7
9
0
4
137
537
1223
2006
2237
1284
25
-193
93
-14
-151
-65
-39
-79
-56
-28
-25
-4
16
32
56
51
23
30
60
77
100
142
186
226
266
301
324
324
312
294
247
163
74
2
-56
-105
-135
-151
-177
-198
-189
-172
-168
-163
-151
-154
-179
-191
-182
-184
-207
-226
-212
-193
-193
-191
-182
-175
-175
-168
-156
-149
-147
-147
-140
-123
-121
-123
-109
-98
-100
-98
-84
-70
-67
-67
-56
-49
-46
-39
-28
-23
-32
-32
-18
-11
-14
-9
7
16
14
18
30
4
-37
-37
-11
-11
-18
-9
7
7
4
18
30
18
11
28
30
11
16
37
44
42
35
21
11
7
14
23
30
39
39
32
32
46
58
53
77
256
705
1382
2022
1940
831
-123
-67
128
-25
-67
4
-28
-44
2
14
4
14
18
28
56
84
105
123
151
191
228
259
294
336
364
343
319
336
336
287
212
137
39
-86
-179
-226
-268
-303
-305
-294
-289
-298
-319
-350
-350
-336
-324
-319
-329
-326
-305
-291
-287
-289
-287
-273
-261
-259
-245
-240
-256
-252
-233
-226
-224
-217
-203
-193
-198
-191
-170
-172
-182
-165
-154
-168
-177
-170
-170
-170
-156
-144
-135
-130
-130
-123
-107
-102
-102
-88
-77
-72
-60
-46
-28
-23
-28
-14
4
4
4
7
-11
-46
-46
7
42
14
-23
-44
-53
-42
-30
-25
-16
-4
0
11
25
28
16
53
263
726
1373
1966
1856
763
-133
-39
149
-14
-53
25
4
-11
32
51
49
58
67
84
116
140
154
177
205
235
280
322
348
380
425
455
460
460
446
404
331
249
163
79
7
-37
-58
-79
-100
-100
-95
-98
-95
-100
-119
-126
-130
-147
-144
-151
-179
-175
-158
-168
-172
-163
-175
-191
-186
-175
-172
-175
-168
-161
-161
-161
-149
-133
-123
-121
-116
-107
-95
-91
-81
-81
-95
-98
-77
-65
-88
-130
-135
-109
-102
-98
-77
-63
-67
-65
-49
-28
-18
-21
-18
-7
-2
4
16
21
14
14
23
16
-2
7
42
63
58
49
44
30
9
-7
-7
-2
-4
-7
-4
-25
-60
-72
-67
-23
224
789
1569
2148
1726
404
-329
-114
-28
-210
-203
-147
-193
-189
-140
-144
-151
-119
-95
-86
-63
-28
0
23
51
91
137
175
221
270
303
319
343
357
345
301
226
147
72
4
-44
-81
-114
-133
-128
-119
-109
-109
-116
-109
-91
-79
-65
-53
-67
-93
-95
-79
-77
-77
-67
-63
-60
-53
-46
-58
-79
-86
-91
-119
-163
-182
-170
-165
-163
-144
-130
-130
-130
-130
-130
-128
-119
-105
-95
-91
-81
-65
-51
-46
-42
-30
-16
-9
-4
9
14
14
23
37
44
44
46
58
67
67
72
86
88
81
84
81
53
28
35
72
114
130
126
119
91
56
63
86
84
74
77
88
93
98
102
93
100
270
749
1506
2263
2237
1030
-84
-77
147
-25
-105
-32
-51
-65
-44
-93
-135
-98
-72
-86
-65
-21
-4
9
46
86
119
154
198
235
263
291
319
329
312
268
210
142
56
-25
-81
-126
-170
-200
-205
-200
-210
-212
-196
-184
-177
-163
-161
-189
-210
-193
-177
-191
-210
-205
-200
-200
-198
-191
-193
-207
-217
-219
-219
-224
-240
-240
-231
-231
-238
-240
-231
-228
-224
-203
-179
-172
-168
-158
-154
-177
-193
-170
-147
-151
-142
-116
-100
-93
-79
-67
-63
-51
-35
-18
-9
-7
0
16
30
30
30
18
11
23
39
51
53
49
53
63
51
37
49
63
72
88
91
81
70
67
81
91
91
95
102
102
102
109
114
107
149
397
959
1751
2335
1912
576
-196
11
116
-70
-63
11
-30
-46
-9
4
21
44
32
21
44
74
81
88
119
154
172
200
249
289
308
331
357
359
329
275
212
137
56
-9
-56
-98
-135
-149
-144
-144
-156
-175
-196
-200
-193
-172
-151
-149
-154
-144
-137
-161
-210
-228
-221
-233
-235
-214
-205
-210
-214
-214
-198
-184
-179
-165
-156
-165
-156
-128
-112
-107
-107
-95
-77
-70
-67
-53
-49
-49
-32
-14
-9
-2
7
-2
-28
-49
-49
-35
-32
-39
-37
-32
-32
-39
-30
-7
2
9
14
21
28
32
30
39
37
0
-11
30
70
86
88
77
56
58
81
88
77
79
88
84
81
88
88
60
86
326
824
1459
1964
1728
632
-140
0
142
-14
-30
25
2
7
42
46
51
72
86
100
133
161
172
186
219
259
291
322
357
373
352
345
371
380
355
312
247
161
67
-9
-67
-123
-161
-175
-186
-214
-245
-247
-226
-214
-210
-193
-177
-172
-172
-168
-163
-172
-182
-175
-165
-172
-179
-170
-158
-163
-158
-144
-135
-137
-135
-126
-116
-112
-102
-88
-79
-81
-74
-60
-53
-46
-39
-35
-30
-23
-11
0
0
-4
2
18
25
18
14
18
21
21
30
42
44
39
49
49
14
-14
-9
-39
-107
-100
-39
-32
-70
-74
-56
-56
-58
-49
-53
-63
-46
-25
-21
-16
-16
-30
-49
7
273
845
1644
2239
1793
439
-291
-65
14
-177
-158
-91
-135
-133
-95
-105
-102
-65
-37
-32
-23
2
30
51
77
112
142
165
193
226
249
263
266
261
242
189
114
35
-51
-130
-177
-205
-231
-249
-259
-263
-256
-231
-221
-242
-263
-254
-228
-221
-249
-268
-247
-235
-242
-233
-224
-247
-270
-266
-242
-231
-233
-217
-193
-203
-217
-198
-168
-154
-144
-135
-119
-102
-93
-86
-86
-84
-67
-44
-25
-18
-14
0
2
-14
0
35
42
21
14
35
53
49
44
53
65
72
77
86
74
46
60
114
147
142
137
140
130
112
100
86
72
65
70
86
91
88
86
88
135
373
903
1681
2309
1905
532
-247
-35
56
-133
-123
-58
-100
-91
-28
-30
-51
-11
25
28
49
86
109
123
147
191
238
266
291
336
378
394
394
387
359
308
245
172
77
-21
-81
-114
-161
-203
-207
-210
-212
-196
-172
-163
-151
-135
-121
-109
-105
-107
-102
-95
-109
-105
-72
-65
-84
-88
-95
-119
-121
-100
-88
-93
-93
-91
-102
-123
-165
-189
-163
-156
-182
-170
-133
-135
-154
-137
-102
-93
-98
-98
-93
-77
-63
-63
-46
-35
-44
-35
-18
-23
-25
-9
-18
-49
-32
37
79
65
49
53
46
37
51
67
65
60
70
79
79
81
72
84
247
653
1265
1898
1943
952
-65
-93
128
-28
-100
-16
-37
-58
-4
21
11
30
58
65
84
119
135
140
147
156
198
254
284
315
369
406
411
411
415
380
291
200
116
21
-49
-95
-142
-172
-177
-168
-165
-170
-161
-140
-126
-119
-114
-100
-84
-74
-65
-49
-39
-42
-42
-25
-16
-21
-18
-18
-44
-70
-58
-39
-53
-67
-53
-53
-70
-81
-88
-84
-72
-70
-67
-51
-53
-65
-58
-51
-67
-81
-86
-95
-98
-86
-79
-102
-163
-182
-123
-72
-74
-81
-74
-88
-102
-86
-74
-109
-161
-170
-144
-126
-119
-121
-116
-9
333
929
1634
1978
1286
72
-301
-35
-65
-198
-135
-102
-142
-126
-84
-81
-81
-67
-70
-74
-44
-7
4
11
46
95
133
163
200
249
287
303
310
310
273
198
109
21
-63
-137
-191
-224
-249
-261
-259
-261
-263
-259
-249
-238
-221
-212
-207
-193
-179
-177
-168
-158
-179
-200
-177
-151
-151
-147
-130
-121
-114
-107
-91
-77
-79
-74
-56
-39
-28
-21
-14
-7
-4
2
23
30
23
16
2
-9
-2
-11
-37
-44
-37
-32
-30
-35
-32
-18
-14
-30
-49
-37
-4
11
7
2
-2
-21
-35
-23
-9
-9
-7
-2
-2
2
14
16
16
121
492
1163
1959
2253
1347
30
-266
35
-30
-175
-98
-70
-112
-86
-74
-109
-100
-58
-46
-35
9
46
67
95
128
163
200
245
291
333
357
369
357
315
266
205
126
44
-35
-86
-107
-140
-179
-182
-161
-154
-151
-142
-126
-116
-105
-88
-67
-63
-60
-49
-44
-67
-98
-88
-70
-74
-72
-51
-44
-56
-60
-49
-39
-37
-30
-21
-14
-14
-7
9
18
18
14
21
32
35
44
53
30
-11
-16
4
11
4
9
18
28
28
37
44
30
7
-21
-42
-44
-39
-39
-39
-44
-65
-77
-63
-44
-30
-21
-25
-35
-42
-46
-46
-42
-32
-21
-18
-30
-30
-11
-7
-16
30
270
833
1665
2351
2008
600
-305
-119
25
-175
-191
-100
-130
-147
-100
-79
-67
-49
-35
-9
18
39
72
107
123
142
184
233
268
298
333
362
371
343
296
247
165
58
-39
-114
-165
-203
-228
-235
-233
-235
-219
-200
-193
-184
-165
-147
-130
-121
-119
-109
-91
-81
-72
-60
-63
-65
-44
-30
-32
-30
-28
-39
-51
-44
-28
-18
-21
-30
-21
0
11
14
16
16
16
25
37
32
28
42
53
44
44
65
56
28
28
42
42
42
37
39
49
37
11
-4
-16
-42
-67
-63
-67
-121
-158
-137
-123
-140
-128
-107
-140
-205
-198
-137
-112
-102
-91
-91
-100
-88
-63
-60
-88
-86
-44
-23
-18
-9
-28
-53
-14
189
637
1317
1966
1894
796
-168
-133
77
-58
-112
-44
-60
-60
-14
-4
-9
11
39
65
91
112
128
149
189
226
261
289
326
376
401
404
429
446
408
345
291
219
105
4
-53
-100
-163
-226
-240
-231
-231
-224
-207
-186
-177
-172
-154
-130
-123
-114
-95
-86
-86
-81
-77
-81
-88
-84
-72
-63
-63
-53
-46
-58
-67
-58
-46
-42
-42
-37
-28
-28
-37
-46
-51
-70
-84
-74
-65
-67
-72
-70
-65
-63
-58
-49
-46
-67
-70
-46
-35
-42
-37
-32
-49
-79
-84
-79
-91
-81
-32
11
14
4
7
0
-28
-53
-53
-35
-32
-42
-30
-9
-4
-21
-21
95
460
1109
1908
2265
1431
98
-259
44
-9
-163
-91
-58
-105
-79
-35
-32
-23
-2
16
42
65
88
114
140
163
196
238
280
312
345
378
401
408
390
352
298
212
128
58
-11
-77
-114
-156
-226
-268
-249
-228
-235
-226
-196
-177
-170
-158
-140
-123
-119
-109
-88
-79
-79
-70
-56
-53
-67
-79
-93
-116
-147
-154
-135
-133
-142
-144
-142
-144
-154
-158
-151
-147
-144
-133
-119
-119
-123
-112
-98
-93
-86
-74
-70
-70
-63
-49
-37
-32
-35
-37
-39
-51
-58
-63
-60
-28
18
44
37
21
4
-18
-39
-37
-25
-21
-21
-18
-2
16
14
0
44
282
826
1625
2293
1982
621
-256
-63
77
-130
-149
-65
-91
-100
-65
-44
-42
-60
-70
-37
-4
9
35
70
95
126
163
207
247
280
315
348
364
359
343
305
235
144
60
2
-49
-107
-140
-142
-147
-154
-142
-130
-130
-121
-100
-79
-79
-91
-102
-114
-112
-93
-86
-88
-84
-70
-58
-58
-60
-53
-44
-42
-46
-46
-46
-49
-58
-67
-65
-58
-67
-74
-67
-67
-79
-88
-91
-100
-107
-100
-91
-91
-93
-86
-79
-109
-144
-130
-107
-109
-116
-109
-107
-119
-109
-67
-23
-4
-18
-51
-88
-123
-128
-109
-100
-93
-79
-70
-74
-74
-63
-56
35
329
850
1532
1966
1401
172
-310
-56
-51
-196
-142
-100
-137
-121
-81
-81
-72
-44
-42
-49
-21
23
46
53
84
128
158
198
252
298
319
324
324
326
310
256
158
63
-18
-109
-175
-207
-268
-329
-329
-308
-310
-308
-294
-287
-284
-263
-231
-217
-214
-196
-165
-154
-151
-140
-121
-107
-102
-91
-74
-74
-98
-109
-88
-67
-56
-53
-49
-35
-23
-16
-4
-4
-2
7
23
37
32
18
16
18
18
21
23
18
7
7
14
32
67
81
53
21
9
2
-2
0
0
0
0
4
9
14
2
2
126
495
1093
1768
2017
1233
49
-268
-30
-81
-203
-149
-123
-140
-116
-93
-88
-63
-30
-16
4
21
9
14
65
116
147
179
231
280
315
345
371
380
366
329
266
168
67
-9
-65
-112
-147
-158
-154
-156
-168
-156
-128
-121
-119
-102
-81
-70
-63
-46
-30
-25
-25
-16
-16
-49
-79
-65
-56
-70
-65
-46
-46
-70
-77
-58
-46
-44
-42
-32
-42
-72
-93
-74
-58
-67
-70
-56
-44
-44
-39
-56
-88
-88
-63
-56
-56
-56
-60
-70
-81
-79
-46
-18
-25
-49
-58
-53
-63
-72
-67
-63
-74
-93
-98
-105
-130
-147
-142
-51
266
892
1704
2153
1429
51
-413
-121
-154
-326
-252
-207
-252
-224
-175
-168
-154
-130
-112
-84
-60
-32
7
39
70
107
149
189
231
277
317
331
329
326
312
261
182
88
-23
-130
-191
-205
-210
-221
-224
-203
-186
-182
-175
-168
-163
-151
-128
-102
-88
-81
-72
-56
-46
-39
-30
-18
-18
-18
-4
7
11
14
18
25
30
37
46
53
49
49
63
77
74
74
72
56
51
63
74
77
72
72
86
93
93
93
98
100
102
107
116
119
107
102
109
95
58
30
42
77
91
84
79
67
49
49
46
-9
-60
-63
-65
-81
-77
-67
-72
-18
261
882
1751
2349
1782
329
-378
-149
-116
-296
-254
-200
-242
-221
-172
-168
-149
-112
-98
-81
-44
-9
14
25
49
88
128
163
207
252
277
291
310
319
298
249
184
107
32
-28
-70
-102
-130
-144
-135
-123
-123
-140
-144
-128
-116
-107
-84
-67
-70
-77
-70
-58
-53
-46
-44
-63
-95
-95
-74
-72
-81
-67
-49
-46
-42
-30
-25
-25
-16
-2
9
7
4
14
25
28
28
37
42
39
35
25
23
25
23
30
44
44
46
56
60
51
53
63
51
37
35
39
42
39
35
23
0
-11
14
49
37
-16
-44
-42
-53
-60
-53
-67
-91
-86
-70
-67
-63
-58
-67
-51
123
588
1340
2130
2137
910
-224
-210
-9
-207
-273
-172
-184
-200
-154
-137
-140
-105
-65
-49
-30
-2
21
28
42
84
133
165
191
233
280
310
322
326
315
277
217
147
72
-7
-72
-107
-121
-140
-154
-154
-156
-154
-140
-126
-133
-151
-144
-126
-119
-116
-114
-112
-112
-100
-84
-72
-72
-81
-84
-74
-91
-126
-116
-91
-100
-102
-74
-56
-56
-51
-42
-63
-98
-95
-65
-70
-93
-91
-74
-63
-63
-79
-88
-65
-56
-65
-58
-58
-81
-93
-84
-88
-91
-77
-70
-72
-67
-63
-60
-56
-65
-72
-51
-32
-14
21
30
11
-2
-16
-37
-44
-49
-60
-56
-44
-37
-28
-25
-35
-23
126
518
1123
1761
1936
1118
11
-175
88
-14
-123
-28
-16
-60
-25
7
7
25
46
67
86
70
58
98
121
123
158
205
238
275
319
359
376
373
366
348
294
203
105
30
-30
-84
-116
-130
-142
-161
-163
-140
-126
-128
-123
-100
-84
-86
-98
-109
-112
-112
-100
-79
-77
-77
-63
-60
-65
-63
-49
-32
-30
-37
-32
-32
-46
-44
-30
-35
-44
-32
-16
-9
-21
-37
-39
-46
-65
-65
-49
-51
-72
-77
-60
-58
-70
-63
-49
-46
-46
-32
-28
-58
-95
-91
-67
-65
-70
-74
-79
-70
-37
14
39
21
7
21
25
21
23
30
35
28
4
-11
-11
-44
-86
-18
252
780
1504
2062
1709
471
-254
-53
39
-151
-140
-60
-102
-109
-65
-53
-51
-28
-4
16
30
46
77
109
130
151
177
193
221
263
301
319
322
312
291
249
177
88
4
-74
-137
-172
-191
-214
-238
-247
-240
-256
-291
-291
-263
-266
-270
-245
-219
-214
-214
-207
-205
-224
-242
-235
-217
-214
-207
-186
-177
-182
-179
-168
-158
-149
-135
-119
-112
-114
-112
-105
-105
-119
-128
-119
-109
-107
-100
-84
-79
-86
-74
-58
-58
-65
-53
-42
-44
-39
-21
-7
-7
-7
2
18
21
23
35
37
35
35
32
25
35
70
114
126
114
107
105
86
49
32
49
63
51
39
42
39
11
4
91
380
978
1807
2349
1751
359
-245
32
65
-128
-81
-16
-72
-67
-18
-7
0
23
42
60
86
107
135
163
182
198
224
259
294
329
359
378
387
385
371
324
247
165
95
30
-21
-56
-81
-100
-105
-98
-88
-84
-81
-70
-63
-93
-130
-121
-98
-100
-95
-86
-93
-100
-95
-93
-121
-177
-191
-168
-172
-191
-175
-154
-149
-149
-142
-128
-116
-114
-116
-119
-123
-133
-128
-112
-107
-107
-102
-93
-88
-81
-72
-72
-88
-91
-70
-56
-53
-49
-39
-28
-21
-14
-2
4
0
4
23
35
32
32
37
35
18
14
42
84
107
116
114
107
93
93
102
100
86
88
102
102
88
70
44
37
123
436
1074
1908
2351
1616
231
-280
-2
-4
-175
-123
-74
-109
-98
-65
-56
-32
-4
7
21
51
86
107
119
142
170
198
235
282
322
343
357
371
369
343
298
233
144
60
4
-35
-70
-98
-112
-116
-114
-109
-98
-88
-91
-86
-67
-51
-51
-58
-70
-70
-60
-51
-42
-32
-49
-86
-105
-95
-91
-91
-86
-86
-86
-74
-67
-79
-102
-107
-107
-137
-175
-179
-168
-170
-168
-149
-137
-140
-140
-133
-135
-144
-135
-119
-112
-114
-107
-86
-72
-72
-65
-46
-39
-44
-35
-18
-18
-32
-25
-7
-11
-49
-65
-49
-44
-60
-63
-44
-18
11
44
51
21
-9
-11
2
9
14
28
32
14
-2
9
18
0
23
219
679
1366
2045
1987
845
-151
-98
109
-51
-109
-30
-44
-65
-30
-7
7
23
18
23
65
77
51
58
98
135
165
207
254
289
315
350
376
371
348
319
268
177
81
21
-30
-95
-130
-135
-149
-161
-151
-137
-130
-126
-128
-126
-107
-98
-107
-114
-105
-95
-95
-112
-140
-149
-137
-126
-123
-133
-147
-158
-163
-158
-154
-147
-147
-147
-135
-121
-123
-119
-107
-102
-102
-102
-102
-98
-100
-102
-81
-65
-67
-60
-49
-58
-88
-100
-74
-65
-72
-60
-56
-65
-46
-23
-18
-16
-11
-7
-2
-4
-14
-4
35
70
79
77
56
25
21
46
60
44
32
56
70
58
51
35
2
46
291
784
1434
1929
1658
565
-161
-21
95
-58
-65
-9
-37
-32
4
7
9
37
51
56
84
114
121
137
179
226
254
277
312
348
359
340
348
359
301
200
135
70
-28
-109
-156
-196
-228
-240
-235
-235
-242
-238
-217
-203
-205
-203
-186
-177
-175
-165
-156
-161
-172
-165
-151
-149
-168
-189
-189
-189
-205
-214
-217
-226
-238
-233
-224
-224
-219
-212
-214
-224
-217
-200
-196
-207
-221
-219
-214
-212
-200
-186
-184
-184
-170
-151
-142
-140
-130
-116
-105
-93
-77
-63
-60
-58
-42
-23
-18
-21
-21
-30
-60
-70
-18
25
16
2
7
-7
-18
-4
4
9
21
32
46
53
51
44
58
193
579
1244
2024
2263
1293
32
-170
109
-4
-130
-37
-21
-63
-32
-2
-2
14
39
51
51
63
91
123
151
179
214
249
282
322
364
399
415
413
401
378
326
247
163
81
11
-32
-51
-72
-93
-98
-88
-81
-77
-67
-53
-58
-70
-56
-35
-53
-102
-114
-91
-91
-105
-95
-84
-93
-98
-81
-72
-84
-109
-119
-119
-126
-137
-137
-130
-135
-137
-119
-109
-109
-107
-98
-91
-88
-93
-91
-102
-140
-149
-119
-105
-109
-98
-81
-77
-72
-53
-39
-37
-42
-30
-11
-4
0
9
16
14
18
30
28
4
2
46
98
109
88
67
56
44
51
67
72
67
65
72
65
30
7
9
35
217
719
1520
2267
2111
798
-240
-149
44
-135
-175
-93
-119
-126
-72
-58
-60
-46
-39
-28
0
35
58
77
102
144
182
214
254
294
329
352
366
378
369
322
254
182
107
32
-25
-65
-93
-112
-114
-107
-107
-109
-95
-86
-98
-100
-84
-74
-74
-67
-51
-39
-42
-44
-35
-23
-25
-39
-46
-46
-49
-51
-65
-91
-95
-91
-91
-109
-154
-179
-177
-177
-184
-172
-156
-156
-165
-163
-147
-140
-135
-121
-107
-109
-107
-91
-72
-65
-65
-58
-44
-39
-35
-18
-9
-14
-14
4
18
18
21
28
35
37
42
49
53
39
9
4
39
77
102
105
91
81
79
88
93
86
81
93
100
98
100
102
91
72
147
490
1151
1957
2307
1469
109
-294
-7
-63
-261
-233
-200
-231
-214
-184
-168
-140
-112
-91
-60
-32
-11
18
58
93
121
154
198
245
280
312
338
343
329
310
268
196
107
28
-30
-74
-107
-130
-154
-172
-172
-154
-142
-135
-126
-114
-102
-93
-84
-63
-60
-74
-74
-56
-51
-56
-51
-46
-51
-67
-91
-98
-100
-119
-130
-119
-114
-116
-114
-119
-137
-142
-123
-109
-112
-116
-105
-95
-119
-154
-147
-128
-130
-123
-102
-88
-86
-81
-72
-58
-49
-44
-37
-28
-18
-14
-4
4
7
9
18
21
14
14
25
30
28
30
35
23
11
32
72
100
109
105
95
79
72
81
93
95
88
86
86
77
60
58
56
109
390
973
1749
2251
1676
329
-235
51
70
-109
-65
-28
-74
-46
0
-9
-4
23
21
2
16
53
74
84
116
161
193
228
275
312
336
359
376
373
343
284
200
105
21
-51
-109
-151
-177
-189
-191
-191
-191
-191
-186
-179
-177
-168
-151
-142
-151
-149
-130
-142
-191
-214
-214
-254
-275
-247
-238
-254
-242
-219
-228
-240
-226
-212
-210
-196
-177
-163
-154
-158
-151
-121
-100
-100
-102
-91
-74
-67
-60
-46
-46
-81
-91
-70
-67
-70
-49
-35
-42
-35
-9
-2
-23
-44
-32
-9
0
2
14
16
11
21
28
18
9
25
67
107
114
91
86
84
74
79
88
91
91
93
81
53
37
49
60
161
495
1055
1679
1947
1272
137
-182
93
58
-77
-18
4
-30
-7
23
23
37
58
74
95
116
142
165
186
212
252
289
324
357
387
418
443
443
415
376
291
168
79
16
-63
-128
-165
-191
-207
-205
-203
-214
-224
-210
-191
-186
-179
-163
-149
-144
-144
-144
-140
-147
-168
-179
-191
-205
-205
-210
-226
-226
-212
-198
-191
-186
-182
-165
-149
-147
-137
-121
-116
-114
-100
-81
-72
-74
-72
-58
-46
-42
-32
-18
-21
-25
-11
7
14
9
11
7
-7
-4
9
16
11
11
25
35
37
35
32
18
-46
-128
-121
-58
-35
-25
-11
-11
-21
-21
-11
-7
0
11
21
23
14
-4
-21
-32
7
259
826
1627
2253
1873
534
-259
-63
44
-135
-130
-58
-91
-95
-58
-46
-30
2
16
23
49
84
107
126
156
189
221
259
298
336
362
364
369
380
364
317
254
170
77
11
-37
-84
-116
-130
-135
-140
-137
-123
-116
-144
-186
-189
-168
-165
-168
-154
-137
-133
-133
-123
-121
-140
-170
-196
-200
-196
-193
-189
-182
-182
-177
-161
-149
-154
-149
-135
-123
-114
-107
-100
-93
-86
-74
-56
-53
-63
-51
-30
-30
-32
-18
-7
-7
-7
-4
-16
-23
-16
-4
7
14
18
23
28
25
32
46
49
39
30
23
28
58
102
126
112
93
93
95
91
86
81
81
67
28
11
18
-9
-53
-35
172
660
1387
2067
1917
698
-247
-140
37
-149
-191
-93
-107
-128
-91
-74
-63
-32
-18
2
35
51
67
102
130
144
175
214
245
270
298
324
322
287
249
214
154
63
-28
-102
-158
-200
-217
-228
-249
-254
-247
-228
-212
-203
-186
-179
-182
-163
-137
-144
-163
-161
-144
-151
-158
-151
-156
-186
-214
-210
-207
-240
-284
-298
-287
-291
-291
-277
-266
-268
-266
-256
-240
-235
-240
-233
-226
-221
-210
-203
-205
-200
-191
-182
-177
-170
-165
-179
-186
-172
-154
-137
-133
-140
-133
-102
-72
-70
-77
-74
-84
-77
-30
25
46
35
30
39
42
32
42
63
70
63
70
95
100
74
60
112
345
908
1686
2202
1789
546
-214
-39
100
-65
-84
-16
-65
-102
-56
-37
-51
-23
30
60
60
72
121
165
184
214
270
317
345
394
439
441
432
434
420
366
282
191
93
-4
-65
-84
-100
-126
-142
-135
-133
-140
-116
-93
-107
-102
-70
-51
-51
-49
-39
-35
-37
-25
-2
-2
-32
-56
-56
-49
-51
-49
-51
-77
-98
-102
-102
-112
-133
-142
-119
-107
-119
-119
-107
-112
-147
-184
-165
-128
-140
-158
-142
-130
-154
-182
-172
-156
-147
-142
-149
-156
-149
-130
-91
-46
-30
-42
-35
-25
-42
-42
-16
0
2
2
7
21
28
21
51
228
660
1282
1852
1887
1015
25
-91
128
23
-70
-7
-21
-53
-11
14
14
35
46
35
35
74
128
163
184
207
238
294
355
383
415
464
481
457
429
390
319
221
116
32
-23
-70
-121
-184
-235
-226
-186
-191
-205
-184
-156
-151
-142
-119
-100
-88
-74
-70
-63
-46
-39
-39
-44
-49
-18
-4
-35
-28
4
-9
-25
2
25
11
-25
-49
-30
-18
-28
-25
-32
-28
-11
-28
-63
-77
-65
-70
-81
-86
-114
-126
-93
-65
-42
-28
-32
-35
-42
-53
-37
-11
-30
-42
-18
-7
-11
-25
-25
0
60
315
864
1485
1835
1522
567
-114
-67
21
-119
-147
-93
-109
-102
-53
-51
-56
-11
14
16
39
84
112
126
156
203
247
270
296
352
385
390
411
401
352
303
226
107
-16
-102
-133
-147
-177
-196
-182
-182
-191
-165
-142
-158
-191
-189
-161
-154
-142
-112
-93
-93
-86
-88
-100
-91
-77
-79
-74
-63
-58
-60
-51
-44
-51
-46
-21
-9
-21
-30
-28
-58
-95
-79
-60
-77
-72
-44
-37
-37
-28
-23
-21
-14
-11
-21
-32
-35
-39
-53
-46
-25
-30
-46
-42
-30
-39
-79
-126
-142
-142
-140
-116
-81
-67
-77
-88
-95
-88
-79
-81
-86
-74
-60
-60
-56
-51
-70
-88
14
394
1109
1989
2450
1667
193
-333
-21
-42
-252
-193
-133
-175
-156
-119
-130
-112
-72
-60
-37
-11
-30
-49
-9
39
60
86
123
163
196
219
247
259
240
219
189
123
42
-30
-91
-133
-154
-175
-210
-235
-233
-214
-191
-175
-172
-161
-142
-137
-128
-107
-91
-91
-91
-77
-63
-53
-56
-65
-72
-70
-58
-46
-42
-39
-42
-32
-18
-16
-14
-4
2
0
4
21
23
14
18
30
30
23
35
46
39
32
39
49
53
53
35
2
-32
-58
-63
-51
-56
-58
-44
-39
-46
-58
-67
-77
-88
-109
-128
-130
-158
-196
-182
-156
-163
-184
-196
-175
-128
-84
-60
-63
-77
-79
-79
-84
-81
-70
-65
-65
-56
-37
-23
-28
-44
-4
228
796
1679
2494
2253
756
-294
-102
67
-177
-203
-93
-123
-142
-93
-79
-77
-56
-32
-7
14
18
30
63
95
123
154
189
212
205
212
256
287
277
256
235
182
86
-2
-60
-114
-161
-175
-179
-191
-189
-175
-165
-161
-147
-126
-112
-112
-121
-107
-81
-77
-81
-70
-58
-58
-51
-35
-30
-42
-39
-25
-16
-18
-11
-4
-4
-4
7
4
-21
-32
-25
-16
-11
-11
-9
-7
-14
-35
-58
-70
-79
-93
-91
-79
-81
-79
-70
-72
-74
-63
-56
-51
-46
-49
-46
-56
-84
-81
-60
-72
-112
-126
-100
-79
-86
-93
-74
-58
-58
-53
-58
-70
-65
-53
-56
-70
-67
-35
16
46
42
32
30
18
23
39
46
51
51
51
56
60
60
58
67
203
621
1342
2165
2370
1303
-4
-191
84
-44
-163
-100
-137
-189
-137
-105
-107
-84
-58
-46
-23
11
42
60
77
100
112
123
161
210
240
261
282
298
296
268
214
147
74
-4
-72
-112
-161
-228
-254
-233
-233
-245
-228
-203
-193
-186
-172
-170
-179
-186
-182
-170
-163
-172
-175
-163
-151
-154
-147
-137
-142
-142
-123
-107
-105
-109
-112
-102
-93
-86
-74
-63
-58
-58
-44
-30
-25
-23
-14
-7
-4
4
21
25
21
16
4
-11
-9
2
11
16
14
23
39
39
32
30
23
21
35
42
37
11
-16
-9
9
4
-9
0
7
-11
-7
39
79
88
88
86
77
67
65
77
84
84
86
93
93
88
86
72
95
329
894
1676
2277
1922
611
-193
-7
105
-79
-79
-11
-53
-58
-16
-7
-7
21
46
51
53
53
65
95
126
147
179
219
254
289
310
301
284
287
277
235
172
93
4
-60
-112
-156
-200
-240
-259
-259
-284
-315
-303
-282
-277
-268
-247
-231
-221
-217
-210
-205
-238
-266
-245
-231
-245
-242
-217
-200
-198
-196
-177
-161
-158
-149
-133
-130
-128
-109
-95
-91
-88
-84
-70
-60
-58
-46
-37
-46
-60
-65
-58
-51
-56
-56
-44
-32
-35
-42
-42
-46
-51
-37
-28
-32
-28
-23
-25
-25
-25
-21
-14
-21
-30
-39
-56
-60
-39
-2
11
-18
-46
-49
-58
-58
-42
-28
-23
-23
-25
-32
-30
-14
-9
23
226
721
1450
2097
1933
731
-207
-77
119
-56
-86
-2
-32
-46
-2
16
14
35
65
72
70
84
114
151
184
203
221
256
301
333
364
390
399
401
392
355
287
193
95
4
-60
-88
-112
-144
-158
-149
-149
-165
-165
-163
-172
-165
-149
-147
-154
-182
-214
-205
-189
-210
-221
-193
-177
-177
-158
-142
-142
-133
-114
-107
-100
-93
-79
-65
-60
-60
-39
-16
-21
-25
-4
9
9
16
21
2
-21
-18
-2
7
14
9
0
11
32
37
42
44
44
60
67
65
65
65
65
56
63
98
137
149
133
116
112
93
46
35
65
58
39
65
86
77
63
67
177
530
1118
1735
1985
1342
198
-189
86
53
-126
-72
-30
-67
-46
-18
-18
-2
25
58
81
88
116
161
182
191
235
275
273
287
333
352
352
355
348
326
273
191
100
9
-67
-112
-137
-161
-177
-179
-177
-168
-163
-149
-126
-114
-112
-100
-86
-81
-88
-93
-86
-70
-70
-81
-86
-98
-112
-112
-119
-133
-140
-137
-137
-133
-130
-121
-107
-109
-121
-119
-91
-72
-88
-100
-74
-81
-126
-121
-98
-109
-107
-77
-63
-67
-67
-74
-102
-119
-107
-95
-112
-109
-70
-25
2
7
0
-9
-9
0
11
16
25
28
23
32
46
44
42
102
366
908
1613
2097
1681
464
-198
25
107
-81
-67
-11
-60
-58
-4
4
4
23
44
65
84
105
137
161
184
217
254
291
329
357
383
411
418
406
385
312
186
72
-2
-65
-137
-205
-263
-289
-287
-270
-259
-256
-247
-226
-203
-184
-177
-175
-168
-186
-210
-184
-161
-175
-170
-137
-126
-135
-130
-119
-114
-109
-100
-86
-81
-88
-93
-105
-123
-126
-123
-130
-126
-112
-107
-107
-109
-114
-123
-128
-137
-149
-144
-142
-149
-151
-144
-144
-168
-193
-182
-142
-107
-86
-86
-100
-123
-128
-116
-130
-156
-177
-196
-212
-235
-238
-219
-219
-168
135
780
1611
2144
1569
163
-467
-156
-93
-289
-247
-179
-217
-193
-147
-147
-130
-86
-63
-46
-9
18
28
56
98
137
175
207
247
289
317
340
359
359
319
259
191
116
44
-18
-67
-98
-112
-116
-112
-109
-102
-91
-74
-67
-60
-42
-25
-30
-35
-25
-7
-7
-35
-51
-37
-28
-30
-23
-23
-56
-86
-74
-56
-58
-58
-39
-25
-25
-18
-7
-4
-4
4
21
30
21
18
37
51
39
25
23
21
18
23
21
2
-9
-18
-35
-18
23
60
74
53
23
11
4
-16
-23
-18
-18
-23
-21
-9
-4
-18
-21
56
357
992
1845
2370
1712
254
-355
-49
-30
-259
-231
-163
-219
-245
-212
-191
-179
-151
-121
-95
-70
-44
-14
18
25
28
67
116
151
189
238
268
270
256
233
177
84
-2
-67
-123
-165
-179
-186
-196
-193
-184
-170
-156
-140
-112
-100
-105
-91
-67
-56
-49
-46
-49
-32
-18
-21
-16
-2
-2
-9
0
9
4
0
0
2
11
16
18
16
-9
-23
-2
4
0
11
21
21
23
32
49
53
44
51
65
67
63
72
79
72
70
81
86
72
39
14
21
32
18
7
-4
-23
-28
-11
-4
-21
-39
-39
-39
-53
-53
-46
-63
-67
63
474
1188
1992
2214
1216
-77
-289
18
-88
-231
-151
-144
-191
-156
-128
-130
-105
-74
-60
-42
-37
-37
-9
32
67
107
142
182
231
263
287
312
319
296
252
200
128
39
-35
-79
-112
-147
-165
-168
-179
-186
-168
-147
-137
-128
-112
-100
-112
-142
-142
-114
-109
-114
-100
-84
-79
-72
-67
-67
-63
-49
-44
-39
-32
-30
-25
-21
-46
-79
-70
-72
-98
-91
-60
-56
-60
-56
-44
-35
-30
-35
-51
-67
-65
-51
-35
-30
-32
-35
-23
-9
-9
-14
-21
-35
-42
-30
-21
-28
-35
-32
-35
-58
-98
-107
-91
-81
-70
-58
-70
-102
-121
-112
-100
-109
-116
-105
-112
-161
-184
-158
-161
-172
-32
401
1123
1903
2067
1034
-212
-371
-72
-182
-296
-207
-205
-242
-200
-170
-161
-121
-88
-81
-53
-9
18
25
42
79
114
154
205
256
284
305
326
336
331
298
238
158
72
2
-37
-67
-107
-140
-154
-154
-144
-128
-112
-107
-102
-81
-53
-42
-39
-32
-18
-18
-18
2
14
2
-2
16
25
18
21
25
21
-7
-35
-23
-2
-14
-18
-11
-16
-23
-9
2
4
9
21
30
32
21
14
16
2
-21
-18
-4
0
-4
-7
-7
-9
-28
-42
-35
-32
-32
-23
-16
-21
-21
-16
-14
-30
-42
-37
-28
-30
-39
-32
-7
28
53
58
49
32
28
37
46
49
56
70
72
58
56
70
42
14
196
710
1434
2069
1954
805
-184
-123
95
-67
-151
-112
-130
-128
-93
-81
-63
-30
-16
0
11
18
42
67
102
147
179
217
275
331
355
366
385
397
390
357
284
184
93
14
-49
-98
-130
-144
-154
-151
-135
-126
-121
-114
-102
-88
-70
-53
-49
-42
-25
-21
-18
-2
4
-2
2
16
21
16
9
-2
-2
11
0
-32
-35
-21
-23
-14
-9
-23
-30
-42
-79
-116
-112
-100
-112
-105
-98
-128
-147
-133
-116
-112
-105
-81
-60
-67
-79
-65
-46
-37
-23
-11
-23
-46
-42
-32
-30
-28
-32
-23
11
58
72
58
56
42
21
39
67
56
46
70
86
77
74
79
74
137
425
962
1611
2048
1662
509
-147
42
126
-37
-28
30
-9
-14
39
56
44
65
98
116
133
151
175
191
200
231
275
305
333
380
408
399
394
399
359
287
217
137
32
-65
-133
-165
-182
-205
-205
-193
-212
-221
-179
-142
-149
-168
-147
-119
-144
-170
-142
-119
-154
-170
-133
-109
-130
-128
-100
-105
-123
-109
-102
-114
-133
-161
-158
-140
-142
-151
-137
-126
-123
-112
-100
-100
-105
-98
-79
-72
-65
-49
-60
-100
-100
-74
-72
-74
-58
-46
-49
-37
-16
-14
-32
-70
-88
-88
-109
-116
-81
-35
-7
-11
-14
4
0
-21
-16
11
18
-2
7
39
39
23
25
56
212
635
1331
2041
2109
1102
4
-102
114
-14
-100
-39
-72
-105
-51
-25
-30
-9
16
30
46
79
114
133
147
184
231
270
305
345
373
366
355
366
364
322
247
154
63
-11
-74
-121
-156
-189
-205
-186
-175
-191
-191
-165
-156
-184
-200
-177
-158
-158
-142
-119
-112
-112
-107
-86
-74
-95
-105
-91
-95
-107
-88
-70
-74
-81
-81
-77
-81
-100
-123
-128
-119
-123
-119
-105
-105
-109
-100
-93
-93
-84
-72
-70
-67
-63
-53
-44
-44
-53
-72
-81
-74
-60
-46
-44
-46
-37
-25
-28
-46
-70
-74
-37
9
28
25
-2
-51
-67
-39
-30
-32
-30
-30
-53
-88
-88
-67
-79
-51
205
805
1644
2347
2071
653
-343
-161
23
-198
-226
-135
-184
-214
-168
-156
-156
-128
-107
-91
-63
-37
-21
2
37
70
98
137
177
207
231
256
275
277
242
172
95
18
-70
-137
-186
-238
-273
-280
-296
-317
-312
-291
-277
-268
-254
-231
-214
-212
-198
-170
-154
-147
-135
-126
-119
-105
-93
-77
-70
-74
-70
-51
-60
-102
-126
-112
-102
-105
-95
-81
-81
-86
-79
-79
-88
-91
-98
-102
-98
-91
-84
-74
-74
-79
-65
-46
-44
-42
-30
-25
-25
-16
-4
-9
-28
-30
-11
-7
-11
2
16
9
-4
-21
-25
-2
37
72
86
77
65
67
72
70
65
79
93
88
84
91
98
86
77
163
478
1093
1933
2520
1929
434
-245
63
93
-163
-156
-93
-144
-147
-98
-84
-70
-42
-23
-7
21
46
72
107
140
158
189
238
280
308
348
371
371
366
343
277
186
95
18
-37
-88
-133
-163
-203
-249
-259
-238
-224
-217
-200
-182
-172
-163
-140
-123
-121
-121
-107
-88
-81
-86
-86
-77
-67
-70
-65
-58
-72
-88
-79
-70
-77
-77
-72
-84
-100
-109
-114
-123
-142
-156
-151
-140
-140
-149
-156
-163
-189
-212
-205
-196
-203
-193
-177
-175
-175
-170
-165
-158
-158
-154
-156
-177
-189
-163
-142
-144
-147
-140
-130
-135
-137
-112
-56
-16
-4
-4
-4
-9
-4
14
18
16
23
39
51
51
46
46
49
119
422
1051
1868
2379
1782
399
-205
67
84
-109
-65
-14
-60
-39
0
-4
9
46
65
79
98
123
149
175
207
235
235
228
266
319
343
355
366
364
340
296
212
100
4
-56
-107
-151
-170
-175
-175
-172
-165
-147
-126
-112
-105
-95
-79
-63
-53
-42
-35
-32
-25
-14
-14
-30
-44
-32
-23
-35
-37
-18
-14
-28
-37
-42
-60
-91
-98
-86
-79
-81
-81
-70
-65
-72
-67
-51
-44
-44
-44
-37
-28
-23
-16
-2
-7
-16
-4
9
-9
-46
-56
-37
-56
-98
-114
-126
-154
-163
-144
-133
-135
-140
-126
-79
-30
-14
-14
-25
-42
-37
-16
-9
-11
-11
-4
-2
-2
0
2
2
98
457
1128
1917
2218
1354
58
-261
18
-56
-203
-133
-121
-165
-130
-105
-114
-98
-67
-63
-51
-18
11
23
39
74
114
144
175
217
249
263
284
303
301
266
210
142
77
7
-77
-161
-226
-275
-287
-268
-256
-252
-235
-212
-193
-177
-154
-135
-130
-114
-88
-79
-79
-81
-88
-86
-79
-72
-65
-53
-51
-56
-49
-46
-60
-77
-98
-109
-102
-93
-86
-81
-84
-79
-60
-53
-51
-44
-39
-35
-32
-23
-4
-2
-7
0
16
23
25
32
39
37
42
58
67
65
60
65
60
39
21
-7
-18
14
60
88
93
77
58
56
56
25
-4
9
21
11
18
37
35
21
77
362
952
1716
2216
1702
397
-231
28
91
-109
-102
-35
-67
-65
-25
-11
-2
16
37
63
86
102
128
156
172
168
175
214
256
275
301
333
343
326
303
266
198
112
39
-9
-56
-112
-147
-144
-137
-161
-182
-168
-149
-142
-123
-100
-95
-93
-77
-60
-56
-51
-46
-49
-74
-114
-123
-112
-114
-123
-116
-102
-98
-93
-86
-81
-91
-109
-123
-126
-128
-130
-123
-112
-112
-109
-98
-95
-98
-88
-67
-58
-60
-58
-46
-42
-39
-23
-14
-23
-21
-4
7
4
-4
-16
-16
14
56
70
56
35
25
23
14
-11
-21
-4
4
4
11
28
25
7
44
275
784
1504
2118
1891
670
-196
-56
102
-79
-119
-37
-49
-65
-35
-21
-37
-60
-72
-44
-11
4
23
65
102
123
156
200
238
268
296
319
336
331
303
263
205
121
42
-11
-65
-116
-135
-133
-135
-142
-140
-128
-121
-123
-109
-93
-91
-86
-84
-102
-114
-102
-93
-84
-79
-77
-72
-63
-60
-58
-49
-37
-37
-35
-25
-28
-37
-39
-25
-25
-32
-25
-14
-14
-14
-25
-49
-56
-58
-67
-72
-79
-100
-107
-93
-119
-179
-189
-170
-175
-172
-147
-147
-165
-163
-121
-67
-39
-30
-30
-51
-63
-46
-28
-21
-16
-25
-39
-37
-16
-4
-14
42
319
861
1541
1989
1518
284
-305
-35
32
-142
-107
-53
-100
-84
-28
-21
-21
11
30
37
60
100
140
161
172
203
231
249
282
329
366
378
390
390
357
298
219
137
63
0
-53
-98
-135
-186
-210
-182
-177
-198
-175
-135
-130
-128
-98
-81
-84
-72
-58
-63
-79
-84
-74
-60
-42
-39
-39
-32
-35
-51
-65
-60
-51
-63
-53
-23
-21
-25
-7
-7
-4
9
11
11
11
-7
-2
18
21
18
28
16
-7
-7
2
-14
-44
-67
-72
-49
-4
23
14
-7
-16
-21
-14
0
-2
-7
-2
0
2
16
14
-25
4
284
817
1443
1873
1515
392
-268
-79
21
-116
-100
-60
-93
-79
-35
-18
-7
7
4
7
49
77
79
116
177
205
221
275
322
345
376
408
422
408
364
317
249
140
28
-49
-114
-200
-259
-254
-245
-263
-266
-240
-212
-198
-191
-170
-156
-158
-135
-98
-98
-116
-105
-79
-72
-79
-70
-53
-63
-79
-72
-53
-44
-51
-67
-91
-123
-147
-130
-116
-133
-133
-114
-102
-109
-107
-95
-102
-123
-128
-114
-114
-130
-123
-107
-116
-142
-140
-107
-77
-74
-93
-98
-93
-107
-112
-107
-130
-147
-137
-137
-142
-135
-126
-67
163
656
1319
1845
1618
513
-282
-151
-9
-172
-172
-91
-123
-135
-88
-67
-53
-21
4
23
39
65
102
137
161
189
233
280
326
366
383
380
364
345
331
284
198
100
11
-67
-133
-170
-189
-207
-212
-196
-184
-177
-158
-140
-133
-121
-100
-79
-67
-70
-67
-56
-42
-39
-39
-35
-28
-23
-11
-2
-7
-7
4
16
16
18
28
35
35
39
51
58
58
51
58
74
77
70
74
79
74
72
70
65
56
49
49
37
30
49
86
114
116
109
112
100
81
72
49
9
0
11
14
-7
-51
-79
-70
46
453
1195
1996
2111
987
-289
-427
-147
-289
-392
-284
-284
-324
-275
-240
-245
-224
-186
-158
-144
-123
-86
-46
-14
9
39
84
123
163
205
233
238
231
221
191
121
32
-56
-142
-203
-231
-247
-266
-275
-268
-254
-242
-238
-226
-214
-212
-205
-184
-170
-172
-193
-210
-200
-182
-175
-170
-168
-161
-147
-135
-123
-114
-114
-107
-95
-95
-91
-77
-88
-126
-128
-98
-86
-86
-77
-60
-51
-46
-28
-9
-9
-9
11
30
35
42
49
56
60
67
77
84
74
58
51
70
107
137
144
133
123
121
112
98
88
88
93
98
93
91
95
93
74
67
210
651
1382
2209
2408
1270
-121
-294
28
-123
-259
-147
-133
-182
-149
-133
-147
-123
-95
-79
-67
-72
-79
-44
2
23
51
102
154
182
212
252
273
268
261
240
189
107
25
-30
-70
-107
-128
-133
-142
-147
-133
-128
-135
-126
-109
-98
-86
-70
-49
-39
-44
-39
-23
-9
-2
-4
-4
-11
-37
-67
-60
-63
-98
-100
-70
-65
-63
-49
-39
-37
-32
-21
-9
-21
-37
-25
-9
-9
-4
2
0
2
11
18
18
14
11
16
21
-4
-46
-46
-30
-35
-37
-25
-18
-28
-49
-51
-42
-49
-58
-60
-81
-105
-93
-56
-37
-58
-93
-116
-128
-130
-126
-121
-128
-140
-126
-105
-107
-112
-109
-112
-56
212
808
1623
2218
1765
376
-387
-149
-60
-254
-224
-142
-193
-200
-147
-137
-130
-84
-53
-46
-14
21
44
74
116
154
184
219
256
296
333
352
359
357
317
233
156
100
21
-53
-91
-114
-133
-140
-154
-168
-161
-140
-121
-105
-93
-86
-74
-53
-39
-37
-28
-16
-16
-9
7
14
9
4
14
23
18
7
-14
-25
-18
-4
9
16
11
9
9
2
-4
4
16
11
7
18
16
0
-2
2
4
9
11
18
28
14
-4
-2
-2
-25
-32
-21
-18
-25
-23
-14
-23
-67
-93
-72
-65
-79
-77
-72
-91
-95
-60
-16
-9
-44
-63
-49
-53
-58
-37
-30
-37
-30
-11
0
0
0
4
2
46
287
826
1590
2204
1849
523
-289
-102
2
-189
-182
-112
-149
-144
-107
-105
-95
-58
-39
-37
-18
14
37
65
98
123
147
177
217
259
277
284
294
289
263
212
140
60
-25
-112
-175
-205
-228
-252
-249
-235
-228
-224
-207
-200
-221
-231
-205
-184
-175
-158
-144
-130
-116
-105
-91
-81
-79
-77
-77
-91
-107
-107
-100
-98
-95
-91
-95
-100
-109
-116
-114
-119
-126
-116
-114
-119
-109
-91
-79
-81
-79
-63
-53
-56
-44
-28
-28
-30
-16
0
9
9
14
28
35
35
39
49
35
18
35
56
51
42
35
28
37
70
114
140
130
112
107
109
112
116
116
105
77
56
65
79
63
44
74
235
663
1375
2116
2139
1001
-119
-137
105
-58
-140
-42
-44
-77
-37
-16
-11
14
35
53
77
93
114
151
184
207
240
273
301
331
371
401
408
397
380
348
282
189
95
11
-74
-140
-154
-156
-179
-177
-158
-154
-147
-128
-114
-107
-102
-98
-93
-88
-88
-91
-86
-81
-77
-72
-77
-116
-168
-172
-168
-205
-238
-242
-242
-240
-235
-221
-217
-226
-224
-205
-193
-198
-196
-179
-179
-184
-170
-149
-151
-161
-149
-130
-128
-130
-123
-116
-121
-123
-107
-88
-86
-91
-91
-93
-98
-91
-74
-67
-65
-49
-37
-39
-51
-51
-21
30
67
72
58
44
42
56
67
79
79
70
77
98
100
88
88
126
322
826
1599
2274
2029
728
-193
-70
51
-142
-147
-74
-119
-116
-63
-53
-51
-28
2
28
51
79
109
133
158
196
235
270
305
343
373
387
401
413
392
324
249
186
112
28
-28
-53
-79
-105
-107
-98
-98
-95
-79
-65
-56
-49
-35
-28
-39
-49
-35
-18
-28
-42
-32
-14
-16
-25
-35
-51
-63
-77
-102
-130
-151
-142
-123
-119
-119
-107
-100
-119
-156
-172
-147
-128
-137
-126
-105
-109
-100
-67
-51
-58
-60
-51
-37
-49
-88
-88
-58
-51
-60
-63
-65
-63
-49
-39
-35
-28
-25
-32
-37
-25
16
72
81
49
28
37
56
60
53
49
49
49
56
74
74
44
84
326
812
1466
2020
1798
616
-252
-121
35
-144
-179
-100
-121
-147
-112
-88
-93
-84
-53
-23
-4
0
21
58
74
65
81
133
172
198
242
277
280
280
275
228
147
60
-18
-88
-147
-179
-196
-207
-214
-217
-214
-191
-163
-149
-133
-119
-116
-100
-74
-58
-51
-35
-23
-30
-46
-46
-28
-14
-21
-23
-7
-4
-18
-30
-30
-30
-42
-65
-86
-81
-72
-79
-84
-70
-58
-56
-51
-46
-37
-28
-25
-25
-21
-7
7
9
9
23
37
32
28
42
56
53
32
23
28
0
-28
18
63
44
35
56
39
21
44
58
56
63
67
67
74
81
79
137
413
941
1585
2034
1693
567
-126
49
144
-25
-28
18
-16
-14
25
32
21
28
51
74
86
95
133
179
200
219
266
296
289
298
350
380
371
362
352
305
228
140
42
-44
-100
-133
-163
-200
-219
-219
-205
-198
-196
-175
-163
-186
-207
-198
-177
-168
-161
-149
-140
-133
-123
-112
-119
-130
-116
-100
-91
-98
-114
-119
-119
-126
-126
-121
-137
-158
-144
-128
-147
-161
-165
-189
-224
-245
-233
-219
-242
-247
-224
-219
-219
-205
-198
-198
-186
-175
-168
-165
-163
-128
-65
-39
-58
-65
-51
-44
-51
-39
-28
-35
-30
-11
2
11
7
18
149
532
1177
1863
2088
1307
149
-149
105
28
-142
-98
-63
-91
-63
-28
-23
-4
9
30
70
105
119
130
156
189
224
273
324
357
380
401
408
392
373
348
280
191
105
25
-32
-84
-133
-133
-126
-151
-149
-123
-119
-123
-105
-79
-67
-60
-60
-70
-56
-42
-44
-37
-35
-37
-18
0
-4
-14
-7
7
11
9
21
30
18
16
37
44
35
42
53
42
2
-21
-4
-9
-37
-35
-21
-44
-58
-35
-25
-37
-39
-39
-51
-84
-149
-198
-203
-172
-135
-109
-107
-121
-130
-123
-107
-100
-105
-100
-88
-84
-77
-63
-65
-81
-16
308
976
1810
2309
1712
310
-355
-93
-37
-240
-219
-149
-179
-177
-142
-142
-133
-102
-86
-67
-39
-25
-11
23
60
81
100
137
179
207
233
256
259
231
189
142
70
-46
-156
-212
-240
-270
-287
-284
-280
-284
-289
-280
-259
-242
-224
-200
-189
-170
-142
-128
-123
-114
-100
-86
-72
-63
-56
-51
-51
-53
-53
-46
-39
-44
-39
-21
-7
-7
2
11
9
21
37
39
39
44
53
60
65
67
74
77
74
81
93
98
93
81
74
72
72
65
51
28
2
-4
11
39
60
56
28
-14
-53
-56
-39
-51
-77
-81
-74
-77
-79
-67
-63
-72
-4
317
980
1863
2461
1870
348
-373
-67
-16
-256
-224
-140
-182
-172
-128
-126
-105
-65
-51
-35
-4
18
39
74
112
142
165
196
242
284
303
326
336
324
308
275
210
130
58
2
-37
-79
-107
-112
-128
-168
-182
-154
-133
-137
-130
-102
-86
-91
-79
-63
-70
-86
-84
-70
-65
-67
-60
-56
-74
-107
-107
-93
-100
-105
-81
-67
-67
-77
-81
-72
-67
-67
-53
-46
-58
-60
-46
-42
-39
-37
-37
-37
-37
-32
-18
-18
-35
-37
-39
-56
-60
-53
-58
-65
-65
-63
-53
-56
-79
-100
-107
-119
-130
-128
-128
-147
-140
-91
-42
-23
-32
-35
-30
-32
-23
-7
-18
-44
-49
-23
-7
-14
-21
-16
25
240
777
1583
2300
2043
642
-319
-154
-9
-212
-217
-119
-154
-158
-100
-93
-91
-49
-16
-4
21
56
84
100
126
172
212
228
254
298
336
350
359
355
333
301
249
179
95
14
-32
-49
-70
-88
-88
-86
-79
-70
-53
-32
-21
-25
-14
11
21
18
21
7
-21
-18
2
11
2
2
11
21
21
25
32
35
30
32
44
51
46
42
51
49
14
-16
-18
-21
-30
-23
-7
-4
-14
-11
0
-2
-21
-25
-21
-35
-51
-42
-32
-60
-102
-105
-86
-79
-81
-79
-74
-77
-77
-63
-51
-46
-51
-58
-58
-44
-14
25
44
28
11
11
16
16
-7
-35
-37
-32
-35
-23
-7
-21
-39
16
263
784
1483
1975
1562
364
-282
-81
-9
-184
-179
-116
-144
-144
-112
-112
-140
-151
-123
-93
-84
-67
-37
-9
16
49
86
116
142
172
205
231
238
224
196
154
102
49
-11
-72
-119
-140
-140
-147
-161
-154
-137
-121
-105
-84
-72
-65
-56
-35
-14
-4
-18
-42
-39
-23
-16
-9
-2
-11
-25
-21
-28
-46
-44
-28
-25
-23
-21
-23
-28
-35
-49
-53
-46
-44
-44
-46
-46
-42
-32
-25
-25
-28
-23
-14
-32
-60
-58
-44
-53
-46
-21
-11
-21
-28
-18
0
7
4
21
28
18
23
35
23
21
53
95
114
107
102
98
84
81
91
98
105
95
67
58
70
67
58
114
343
805
1420
1884
1550
455
-158
25
98
-53
-35
14
-30
-25
25
32
28
56
77
74
60
60
93
116
123
151
193
226
252
275
296
301
268
228
200
165
109
46
-11
-60
-100
-130
-154
-165
-163
-156
-142
-135
-130
-112
-91
-81
-79
-60
-49
-56
-63
-58
-46
-49
-72
-88
-79
-72
-77
-86
-107
-121
-123
-128
-130
-128
-130
-123
-114
-112
-105
-93
-91
-88
-84
-81
-74
-70
-70
-60
-56
-51
-37
-23
-25
-30
-21
-2
2
-2
-4
-2
-7
-14
-4
4
0
0
14
14
0
0
23
49
35
16
23
14
-11
2
21
14
14
28
30
23
30
35
28
70
298
798
1487
1982
1560
371
-235
-28
28
-123
-102
-56
-88
-74
-30
-30
-23
11
28
32
56
88
119
142
163
189
219
247
282
317
340
345
350
350
333
287
205
119
53
-11
-65
-98
-126
-147
-149
-140
-137
-135
-126
-114
-107
-93
-77
-79
-114
-142
-121
-100
-107
-112
-107
-112
-123
-123
-121
-140
-163
-172
-175
-175
-165
-170
-184
-191
-186
-170
-158
-172
-189
-175
-156
-177
-212
-205
-184
-184
-177
-147
-135
-147
-144
-128
-116
-102
-77
-70
-81
-93
-91
-95
-112
-102
-58
-16
-4
-16
-37
-49
-49
-32
-23
-28
-23
-18
-23
-21
-16
-16
21
198
632
1261
1833
1791
780
-191
-177
32
-140
-235
-189
-228
-268
-228
-198
-182
-158
-151
-133
-93
-63
-30
11
51
74
98
156
228
270
296
326
343
345
340
315
247
149
63
2
-65
-121
-128
-137
-161
-175
-184
-165
-144
-140
-112
-95
-93
-72
-51
-51
-39
-18
-14
-4
11
7
4
21
30
23
28
35
30
28
44
70
65
44
46
39
14
9
-7
-70
-109
-86
-60
-79
-102
-93
-84
-100
-114
-114
-116
-112
-67
-18
-4
-16
-32
-37
-32
-32
-25
4
11
-9
-4
25
25
16
44
193
590
1237
1866
1917
1008
-32
-161
93
16
-93
-39
-11
-35
-23
7
35
51
49
77
119
133
149
186
224
252
273
319
376
404
418
446
455
425
383
322
210
65
-51
-105
-154
-219
-254
-254
-266
-305
-322
-294
-282
-273
-238
-212
-210
-205
-196
-168
-142
-133
-116
-95
-100
-119
-107
-72
-84
-116
-107
-91
-95
-91
-79
-79
-84
-67
-49
-60
-72
-63
-53
-60
-60
-49
-37
-32
-49
-70
-70
-67
-63
-37
-9
4
-11
-37
-53
-53
-56
-77
-88
-74
-67
-98
-123
-123
-128
-116
25
439
1128
1833
1961
1032
-114
-310
-81
-212
-343
-252
-228
-268
-226
-177
-172
-158
-116
-86
-72
-51
-28
2
46
81
116
165
210
252
301
336
345
340
326
294
217
112
28
-25
-74
-116
-135
-137
-144
-149
-135
-121
-116
-105
-88
-81
-70
-58
-65
-70
-65
-51
-28
-18
-30
-49
-65
-63
-53
-49
-32
-18
-18
-16
-9
-4
4
14
16
23
30
42
53
51
42
46
58
65
77
84
53
-7
-23
2
2
-14
-23
-21
-2
32
65
79
72
65
65
70
72
74
84
86
79
74
93
107
88
70
144
481
1149
1950
2372
1707
312
-308
-56
-21
-214
-198
-156
-193
-191
-196
-224
-205
-177
-163
-137
-105
-86
-65
-37
-9
28
72
109
144
182
205
226
240
221
175
114
51
-23
-116
-189
-221
-245
-256
-259
-266
-275
-266
-247
-256
-287
-282
-256
-261
-259
-226
-205
-217
-224
-207
-186
-179
-175
-170
-165
-165
-156
-133
-121
-126
-128
-119
-112
-112
-102
-84
-77
-67
-44
-30
-35
-51
-65
-51
-30
-16
2
7
-2
2
21
35
39
49
63
67
65
67
86
95
84
84
86
77
77
84
86
93
95
93
107
123
112
102
116
128
119
102
88
72
53
65
100
98
65
51
56
63
72
74
63
49
44
42
32
2
-25
-28
7
219
780
1606
2351
2200
857
-228
-161
0
-217
-247
-140
-165
-189
-147
-126
-114
-84
-60
-42
-16
11
39
67
95
137
182
200
214
261
315
326
331
352
343
289
228
163
86
7
-56
-81
-98
-121
-126
-112
-128
-170
-172
-140
-144
-186
-193
-163
-149
-142
-121
-116
-112
-109
-121
-119
-112
-116
-112
-86
-72
-86
-88
-65
-58
-60
-49
-56
-88
-107
-79
-53
-70
-74
-53
-49
-63
-56
-39
-35
-37
-37
-28
-25
-37
-58
-77
-84
-84
-79
-74
-79
-84
-81
-81
-91
-102
-109
-126
-147
-140
-123
-128
-128
-114
-116
-123
-109
-86
-79
-86
-84
-74
-51
-35
-35
-32
-30
-49
-93
-100
-70
-65
-77
-60
-37
-42
-53
-42
-7
28
56
65
44
14
2
7
11
23
39
49
51
53
60
77
88
65
56
233
721
1457
2211
2319
1235
0
-140
130
-2
-119
-30
-11
-49
-32
0
25
30
30
60
105
128
142
163
191
224
256
294
338
371
401
436
453
446
434
397
326
235
144
70
11
-67
-151
-184
-186
-198
-205
-196
-184
-172
-156
-158
-186
-203
-196
-191
-189
-184
-186
-186
-172
-165
-165
-154
-137
-142
-151
-149
-140
-130
-116
-109
-102
-91
-84
-79
-63
-65
-70
-49
-42
-42
-23
-21
-56
-79
-56
-42
-84
-116
-84
-58
-77
-70
-39
-35
-35
-23
-28
-39
-28
-16
-9
4
14
16
25
32
32
39
53
60
65
70
74
77
77
65
35
-2
-23
-14
-2
-14
-23
-7
30
63
70
67
63
35
23
46
56
44
53
72
72
67
74
88
91
70
86
315
868
1634
2316
2176
924
-105
-25
158
-44
-102
-23
-60
-81
-30
-14
-30
-25
-2
18
35
42
37
53
86
95
114
172
226
242
261
308
340
331
296
256
203
107
-11
-95
-156
-207
-231
-235
-238
-235
-233
-228
-219
-210
-196
-179
-193
-219
-207
-184
-179
-170
-151
-133
-119
-116
-112
-100
-93
-84
-67
-63
-60
-49
-39
-42
-30
-11
-2
-2
-2
-2
11
30
28
9
0
7
11
18
35
39
32
44
51
44
56
65
60
65
72
72
86
91
72
74
93
72
49
60
63
53
63
74
77
79
74
58
44
51
56
51
30
-39
-95
-81
-72
-93
-72
-16
11
7
4
16
7
-11
-7
14
16
11
16
21
23
28
30
18
11
140
574
1289
2038
2216
1242
-16
-266
-11
-107
-242
-184
-175
-207
-177
-161
-179
-175
-172
-182
-151
-116
-109
-102
-74
-53
-56
-37
16
58
81
109
147
163
137
93
46
-18
-107
-182
-228
-275
-315
-322
-310
-310
-308
-298
-277
-261
-277
-291
-259
-233
-235
-214
-175
-156
-156
-144
-121
-107
-102
-86
-70
-67
-72
-70
-58
-51
-49
-42
-28
-18
-9
-2
7
14
18
25
37
44
49
53
53
56
70
84
84
72
67
60
44
46
56
56
63
70
60
49
51
51
51
67
79
74
77
88
93
84
88
105
109
95
100
114
112
114
119
107
67
14
-2
35
74
91
100
102
95
88
77
58
49
56
70
74
70
70
77
79
65
74
247
731
1508
2342
2443
1219
-91
-172
121
-42
-151
-49
-49
-93
-72
-74
-98
-102
-121
-135
-121
-128
-144
-114
-77
-56
-23
23
60
86
114
140
154
158
147
126
79
0
-84
-147
-203
-249
-275
-296
-305
-305
-294
-280
-270
-266
-254
-238
-228
-226
-214
-212
-238
-263
-249
-228
-238
-240
-217
-203
-207
-198
-182
-184
-189
-177
-161
-156
-158
-156
-144
-135
-130
-119
-105
-100
-102
-119
-130
-116
-100
-102
-98
-81
-65
-53
-42
-35
-28
-16
4
18
18
21
37
46
51
63
70
70
74
86
95
100
105
107
109
112
116
126
133
130
114
95
81
70
81
119
156
163
158
161
154
133
126
140
128
84
60
72
74
70
79
84
86
226
679
1436
2258
2415
1289
-18
-163
114
-60
-207
-114
-107
-142
-100
-74
-72
-44
-21
-11
14
51
77
91
102
123
158
186
221
266
294
310
331
343
322
275
210
123
35
-37
-98
-156
-214
-247
-240
-233
-238
-235
-217
-196
-191
-182
-154
-137
-144
-135
-107
-95
-100
-93
-86
-102
-163
-217
-191
-165
-186
-177
-147
-137
-135
-119
-107
-109
-121
-119
-102
-93
-100
-91
-70
-58
-53
-44
-39
-39
-35
-21
-9
-11
-14
-2
4
4
7
14
11
4
7
23
32
23
16
23
25
25
21
14
7
0
2
14
14
0
-2
-2
-14
-35
-42
-23
11
37
39
28
21
4
-2
11
18
21
30
35
21
7
14
9
-18
81
499
1205
1950
2095
1081
-137
-296
-14
-123
-233
-149
-133
-161
-123
-93
-88
-60
-25
-16
7
49
77
98
130
161
191
226
266
305
331
336
348
343
303
277
245
165
77
11
-51
-109
-149
-191
-210
-198
-193
-196
-184
-175
-165
-156
-142
-123
-112
-109
-98
-88
-86
-72
-51
-60
-70
-53
-35
-44
-56
-53
-56
-100
-140
-126
-105
-114
-105
-81
-74
-70
-56
-49
-46
-35
-21
-7
0
-7
-2
18
30
25
32
44
44
42
53
72
77
56
51
72
79
70
74
84
86
84
91
105
100
84
84
86
32
-30
-21
35
67
70
63
58
49
44
51
56
56
58
65
65
67
67
37
32
177
583
1254
1968
2053
1034
-88
-224
-23
-156
-240
-165
-175
-205
-158
-133
-142
-121
-88
-81
-67
-32
-9
9
37
58
81
123
151
163
177
196
207
205
186
156
112
44
-37
-112
-168
-214
-254
-273
-273
-270
-266
-254
-235
-224
-221
-221
-212
-203
-203
-203
-189
-172
-165
-165
-154
-158
-175
-165
-142
-137
-135
-126
-121
-130
-151
-142
-116
-114
-116
-91
-70
-67
-70
-63
-49
-49
-81
-98
-74
-63
-67
-53
-28
-18
-21
-18
-4
2
-2
4
21
21
25
46
56
49
49
63
74
74
65
63
63
67
88
133
161
144
119
109
112
114
116
126
130
119
116
133
137
114
109
252
656
1284
1929
1992
1034
16
-53
142
-11
-105
-25
-30
-65
-30
2
4
18
37
49
74
102
123
147
170
191
219
261
303
322
322
324
329
298
249
219
163
46
-51
-93
-135
-189
-210
-217
-226
-221
-205
-191
-182
-168
-147
-135
-128
-126
-123
-107
-98
-95
-81
-67
-72
-81
-88
-105
-121
-135
-140
-130
-123
-121
-114
-109
-107
-102
-112
-133
-133
-119
-119
-121
-109
-91
-77
-72
-72
-65
-51
-39
-32
-32
-28
-14
-9
-4
0
-9
-18
-9
4
4
2
9
-2
-44
-56
-2
44
39
16
16
18
16
25
32
28
30
42
51
56
49
35
86
331
803
1438
1926
1590
471
-165
14
98
-58
-63
-2
-23
-28
7
18
21
39
53
46
42
67
98
119
147
179
210
240
263
291
326
348
340
331
322
284
219
137
58
4
-46
-88
-100
-95
-105
-114
-114
-102
-88
-72
-56
-49
-44
-35
-25
-42
-79
-84
-67
-67
-65
-53
-46
-46
-44
-39
-32
-37
-60
-79
-74
-70
-70
-56
-46
-53
-60
-67
-72
-74
-88
-93
-88
-93
-109
-126
-133
-133
-130
-121
-105
-93
-91
-88
-86
-91
-93
-95
-105
-107
-86
-81
-100
-107
-98
-91
-91
-84
-65
-51
-49
-44
-32
-25
-37
-4
203
646
1254
1770
1585
572
-165
-67
60
-100
-163
-116
-119
-123
-102
-88
-70
-58
-51
-25
0
18
51
88
119
142
165
203
245
275
301
326
336
315
277
224
158
91
23
-37
-84
-112
-126
-135
-149
-149
-135
-116
-105
-105
-107
-86
-65
-63
-49
-35
-37
-37
-16
-7
-14
-16
-9
-4
-7
0
9
7
2
4
11
21
28
23
21
28
32
30
37
42
32
28
21
-2
-39
-65
-63
-58
-67
-63
-42
-39
-60
-84
-95
-86
-60
-35
-25
-46
-81
-98
-88
-84
-91
-84
-70
-67
-65
-49
-49
-65
-42
147
593
1251
1842
1693
621
-212
-142
11
-128
-161
-86
-100
-119
-88
-70
-51
-25
-14
9
51
70
81
112
147
175
205
242
282
312
336
359
362
324
287
263
212
121
35
-23
-84
-163
-217
-219
-226
-245
-228
-198
-184
-179
-175
-170
-198
-233
-228
-210
-205
-191
-170
-163
-158
-140
-123
-126
-137
-142
-128
-112
-98
-95
-102
-79
-51
-53
-53
-30
-30
-32
-7
18
4
-14
-4
16
28
30
25
14
14
44
86
107
105
86
79
84
74
56
42
44
44
35
39
56
56
37
88
333
815
1427
1898
1604
471
-270
-102
28
-126
-142
-130
-205
-217
-161
-147
-156
-126
-79
-58
-35
-4
14
39
74
112
165
219
249
280
333
369
373
373
352
298
221
121
32
-32
-100
-147
-154
-165
-186
-184
-170
-168
-156
-137
-116
-98
-98
-107
-95
-88
-81
-58
-42
-42
-51
-46
-18
-16
-30
-23
-7
-4
0
11
11
9
18
28
39
42
35
14
-16
-9
2
-18
-49
-51
-18
11
-2
-30
-23
-14
-21
-18
4
23
9
-11
18
58
44
39
100
322
803
1443
1915
1709
712
-102
-65
119
4
-60
-7
-7
-32
-14
11
16
18
28
58
77
86
116
126
133
175
212
259
310
322
336
373
373
326
266
191
107
23
-65
-151
-224
-270
-298
-331
-350
-329
-296
-305
-331
-303
-256
-245
-247
-235
-210
-207
-235
-235
-210
-203
-212
-198
-184
-182
-170
-165
-168
-163
-151
-130
-130
-151
-133
-107
-126
-128
-114
-135
-161
-158
-121
-77
-74
-109
-116
-86
-91
-121
-112
-77
-65
-77
-77
-60
-46
-53
-42
77
425
1018
1655
1924
1375
319
-170
-2
21
-109
-81
-72
-121
-98
-70
-84
-77
-39
-9
23
58
72
98
147
184
219
275
317
312
305
336
366
357
324
268
193
102
9
-77
-154
-210
-245
-263
-273
-277
-270
-284
-291
-261
-242
-245
-233
-210
-182
-163
-154
-144
-130
-119
-112
-98
-88
-100
-98
-79
-72
-63
-46
-51
-58
-49
-35
-28
-14
-2
-7
-18
-30
-39
-39
-28
-21
-14
-9
-4
7
9
-18
-25
2
32
67
93
81
63
63
79
84
77
67
67
70
53
28
30
37
9
28
303
945
1770
2354
2006
712
-186
-84
51
-151
-221
-161
-172
-179
-140
-116
-107
-88
-67
-42
-11
4
25
67
95
119
172
203
219
270
312
324
326
303
228
140
72
4
-81
-137
-163
-193
-210
-212
-219
-233
-245
-240
-221
-210
-198
-184
-179
-182
-168
-142
-137
-156
-142
-112
-114
-116
-107
-114
-140
-158
-161
-170
-177
-165
-147
-128
-116
-114
-102
-84
-88
-88
-58
-39
-49
-44
-23
-14
-14
-7
7
11
7
14
32
42
42
44
51
58
65
65
65
56
35
42
56
49
53
65
67
65
74
88
84
67
72
95
107
100
95
102
102
100
107
112
109
112
114
116
116
116
114
112
114
105
98
107
112
98
93
105
109
100
88
67
42
25
28
39
42
28
16
21
25
11
0
-11
-30
-30
-18
-16
-30
-56
-25
242
836
1658
2386
2160
721
-357
-212
-21
-259
-298
-177
-210
-240
-182
-154
-161
-137
-107
-79
-56
-39
-18
7
28
60
102
135
163
191
224
252
240
196
170
158
116
51
-4
-60
-119
-154
-161
-177
-196
-191
-175
-163
-154
-142
-133
-137
-170
-182
-154
-147
-156
-142
-128
-128
-130
-130
-126
-121
-119
-121
-128
-133
-133
-137
-156
-168
-163
-158
-149
-133
-130
-128
-119
-121
-130
-130
-133
-142
-140
-123
-123
-135
-133
-119
-121
-135
-130
-128
-147
-158
-147
-135
-144
-163
-163
-140
-121
-123
-112
-95
-100
-98
-67
-49
-49
-49
-39
-25
-16
-7
4
9
7
11
30
49
51
49
51
49
28
-4
-9
16
21
18
42
63
58
30
-2
7
25
25
35
49
46
51
65
74
70
60
140
492
1156
1982
2492
1840
387
-212
98
102
-121
-58
7
-58
-58
-18
-7
11
18
23
51
77
91
123
147
156
191
233
256
284
312
319
329
345
345
319
268
200
137
67
-11
-74
-119
-158
-182
-184
-184
-207
-247
-268
-249
-221
-221
-235
-242
-231
-221
-205
-179
-177
-186
-172
-151
-144
-135
-123
-116
-114
-112
-102
-81
-86
-123
-128
-93
-86
-95
-84
-79
-93
-86
-63
-56
-58
-46
-35
-25
-16
-11
-4
7
14
16
25
46
46
32
44
63
63
60
77
88
74
74
93
95
88
98
102
86
77
86
86
77
81
93
88
88
79
60
63
53
11
4
32
23
9
37
53
49
49
51
49
49
46
65
88
79
70
77
72
51
42
46
46
42
44
44
35
23
11
-9
30
308
896
1648
2216
1835
502
-282
-46
37
-198
-179
-91
-137
-142
-95
-95
-88
-53
-28
-18
-11
4
35
60
81
116
147
165
198
238
249
233
238
259
249
205
149
88
0
-105
-168
-175
-191
-219
-226
-210
-191
-184
-170
-149
-137
-140
-142
-128
-119
-121
-107
-86
-86
-91
-86
-70
-63
-60
-53
-37
-37
-44
-32
-18
-14
4
16
7
-2
-2
11
44
63
32
11
42
60
56
58
32
14
42
56
42
51
67
65
63
63
65
56
32
16
18
30
4
-35
-18
7
-9
-16
9
23
16
11
32
53
46
42
49
39
37
49
56
46
11
-14
4
9
0
23
44
32
11
28
53
46
30
28
42
72
98
109
105
77
63
81
93
81
77
77
56
46
56
51
37
93
352
866
1504
1940
1648
581
-179
-91
21
-161
-210
-147
-172
-184
-135
-126
-128
-95
-72
-56
-23
4
25
51
84
119
149
179
207
226
259
291
301
298
282
235
177
107
-7
-119
-172
-212
-249
-263
-266
-263
-259
-254
-238
-212
-196
-175
-156
-156
-149
-116
-93
-91
-93
-93
-91
-93
-93
-79
-70
-77
-74
-53
-44
-46
-49
-44
-30
-25
-30
-46
-60
-56
-46
-42
-32
-23
-23
-18
-4
2
4
14
23
16
14
25
18
2
9
18
18
25
32
35
39
35
35
56
60
49
60
67
35
-2
4
23
16
4
11
23
28
32
37
37
35
37
42
25
-4
-9
30
81
93
70
58
44
2
-21
-7
7
2
-4
4
16
2
-39
-77
11
366
1015
1779
2144
1429
140
-308
-53
-95
-263
-221
-210
-270
-254
-219
-224
-217
-189
-168
-156
-137
-107
-77
-65
-46
-7
32
60
91
128
156
170
184
186
158
105
44
-32
-133
-235
-296
-324
-357
-387
-399
-394
-394
-390
-362
-331
-324
-305
-273
-256
-247
-226
-196
-177
-177
-175
-151
-128
-133
-149
-147
-130
-126
-119
-98
-79
-79
-74
-60
-46
-37
-30
-35
-46
-39
-25
-11
-2
0
9
21
25
28
37
51
56
51
58
72
79
79
79
81
91
93
98
107
102
98
109
119
114
114
114
84
35
23
42
44
35
39
46
37
18
21
56
93
112
121
119
105
86
93
112
105
84
72
70
67
74
81
70
116
406
1027
1859
2454
1957
513
-247
9
86
-126
-100
-28
-84
-91
-58
-70
-63
-30
-23
-18
9
42
60
70
84
105
121
137
170
210
231
238
252
256
238
191
123
35
-72
-168
-212
-254
-326
-369
-352
-333
-333
-324
-301
-280
-268
-252
-224
-205
-200
-189
-165
-154
-163
-175
-168
-156
-144
-133
-121
-112
-112
-121
-116
-102
-95
-93
-81
-67
-56
-46
-35
-28
-30
-23
-2
2
0
11
25
21
21
39
53
46
42
56
65
60
65
77
72
70
77
72
56
56
60
63
67
70
72
77
72
49
35
46
70
100
128
137
126
109
102
107
79
30
30
32
-2
-9
7
4
-2
60
355
959
1751
2314
1847
443
-315
-51
37
-182
-163
-77
-114
-121
-88
-81
-67
-37
-18
-2
23
46
63
95
133
158
179
217
261
294
322
343
350
338
308
266
207
114
14
-49
-95
-142
-163
-175
-191
-198
-196
-196
-198
-207
-214
-200
-189
-186
-177
-165
-170
-172
-163
-177
-203
-200
-184
-182
-170
-165
-175
-175
-189
-217
-207
-177
-172
-175
-156
-137
-133
-126
-107
-93
-93
-88
-72
-60
-56
-46
-37
-37
-37
-28
-11
-18
-56
-67
-39
-32
-44
-44
-46
-51
-42
-30
-28
-39
-58
-53
-11
28
51
53
35
16
14
23
32
30
21
23
30
30
35
30
21
123
511
1198
1971
2228
1312
-25
-343
-39
-114
-270
-217
-238
-289
-238
-212
-233
-205
-165
-156
-144
-114
-84
-67
-39
2
39
70
105
144
177
212
240
249
242
217
161
98
23
-56
-119
-161
-186
-203
-205
-196
-189
-186
-172
-144
-128
-119
-105
-86
-79
-74
-63
-51
-65
-77
-63
-51
-53
-49
-39
-42
-46
-53
-81
-107
-121
-140
-142
-123
-121
-121
-109
-102
-105
-100
-81
-72
-74
-67
-53
-58
-88
-100
-84
-81
-84
-63
-46
-42
-37
-25
-14
-7
-4
4
21
21
-2
-18
-23
-25
-7
39
77
81
67
60
60
60
63
74
84
81
84
91
91
88
84
147
429
999
1747
2260
1765
462
-172
70
116
-77
-79
-51
-98
-91
-53
-39
-30
-7
21
37
53
79
114
147
168
191
217
247
256
245
259
282
259
217
203
175
102
18
-44
-98
-147
-179
-200
-231
-252
-235
-207
-193
-189
-177
-154
-137
-128
-109
-91
-93
-91
-67
-53
-53
-51
-49
-39
-28
-25
-23
-14
-11
-9
2
4
-7
-11
-7
-11
-23
-39
-58
-60
-65
-72
-65
-65
-81
-91
-84
-77
-84
-84
-72
-63
-65
-58
-44
-42
-37
-30
-30
-25
-16
-9
-7
-7
-9
-14
-16
-9
16
42
58
23
-30
-30
-9
-16
-23
-11
2
7
14
21
21
9
21
179
586
1223
1894
1982
1025
-30
-123
102
-18
-109
-28
-18
-53
-35
-32
-37
-9
7
-4
11
46
63
84
126
158
179
207
247
287
312
336
352
338
305
289
254
165
77
23
-28
-81
-112
-123
-133
-135
-140
-147
-149
-137
-119
-105
-95
-84
-70
-63
-53
-53
-53
-44
-60
-98
-95
-79
-91
-91
-63
-49
-60
-63
-49
-35
-37
-35
-18
-11
-25
-32
-30
-44
-60
-60
-53
-44
-49
-79
-93
-105
-151
-182
-165
-154
-165
-168
-156
-149
-142
-128
-121
-121
-112
-102
-98
-93
-95
-107
-112
-100
-65
-18
-4
-30
-53
-51
-49
-46
-46
-42
-39
-42
-35
-23
-21
-39
-42
93
481
1081
1714
1831
934
-133
-273
-37
-137
-249
-182
-168
-196
-168
-144
-144
-128
-109
-102
-72
-44
-32
-9
18
23
44
93
128
149
189
233
254
247
233
217
186
121
49
-14
-74
-121
-140
-147
-156
-161
-156
-147
-130
-116
-116
-112
-102
-91
-74
-56
-49
-49
-39
-25
-23
-18
-4
0
-2
2
11
14
18
23
28
37
42
46
56
44
-9
-42
-21
-7
-21
-25
-28
-39
-39
-35
-44
-53
-58
-67
-81
-98
-100
-91
-84
-81
-79
-67
-49
-49
-49
-30
-21
-30
-28
-28
-35
-25
11
53
74
67
49
37
28
23
30
39
30
23
39
56
58
46
46
168
511
1055
1681
1894
1128
81
-112
119
44
-60
-4
9
-14
7
37
46
53
65
86
112
123
128
147
168
144
102
128
184
200
212
224
228
228
224
203
170
109
37
-23
-79
-130
-158
-168
-182
-193
-189
-182
-184
-172
-147
-126
-121
-126
-123
-112
-109
-114
-102
-91
-93
-95
-91
-88
-91
-88
-86
-88
-88
-77
-72
-77
-79
-88
-98
-100
-107
-114
-107
-98
-102
-107
-91
-93
-116
-133
-147
-154
-149
-144
-142
-130
-123
-114
-100
-91
-98
-114
-112
-119
-154
-154
-126
-126
-140
-128
-105
-74
-42
-14
-2
-11
-23
-16
-4
-2
2
14
9
-2
4
21
21
28
154
520
1139
1828
1987
1116
49
-123
98
21
-67
-11
-2
-25
-4
18
30
53
74
84
107
140
168
191
214
233
242
270
322
364
380
397
422
427
406
380
338
259
149
56
2
-37
-84
-119
-123
-142
-179
-175
-144
-154
-158
-133
-109
-98
-91
-84
-74
-72
-72
-58
-46
-56
-60
-51
-39
-35
-30
-25
-14
-7
-7
4
21
11
-11
-4
9
0
0
11
4
-7
0
14
-2
-60
-91
-77
-79
-91
-81
-84
-102
-100
-77
-67
-74
-84
-79
-67
-51
-21
0
-16
-39
-39
-28
-28
-39
-39
-9
7
-2
11
28
18
9
39
233
689
1345
1957
1915
852
-184
-203
35
-98
-163
-74
-84
-102
-39
-14
-23
-4
23
56
93
123
133
156
221
266
270
308
380
422
448
492
516
495
478
450
369
263
161
60
-14
-58
-98
-126
-140
-147
-128
-123
-133
-116
-93
-105
-123
-105
-81
-79
-70
-56
-58
-49
-30
-30
-32
-30
-25
-11
-9
-16
-18
-23
-16
4
11
2
0
2
-16
-37
-30
-23
-25
-23
-28
-35
-32
-23
-23
-35
-25
21
60
46
4
-18
-28
-35
-42
-37
-30
-28
-35
-44
-28
-16
-32
51
397
962
1557
1863
1394
310
-231
-11
37
-126
-95
-53
-114
-119
-79
-49
-18
-16
-18
32
86
100
114
163
210
219
245
310
362
385
415
453
462
448
420
350
242
135
46
-16
-74
-144
-191
-205
-249
-319
-317
-282
-282
-273
-235
-205
-198
-189
-161
-142
-135
-116
-119
-142
-128
-109
-112
-98
-84
-84
-81
-79
-60
-39
-51
-53
-30
-28
-28
9
11
-35
-56
-37
-16
-28
-44
-18
42
70
49
35
44
32
0
9
25
16
23
28
23
32
46
60
116
380
955
1616
1978
1583
504
-179
-46
63
-100
-137
-98
-126
-156
-177
-170
-128
-109
-119
-95
-44
-16
-7
11
53
112
163
198
238
291
324
336
362
359
305
235
144
51
-32
-107
-165
-226
-270
-256
-254
-275
-242
-210
-228
-221
-175
-147
-149
-158
-137
-107
-107
-100
-88
-91
-79
-60
-74
-74
-53
-53
-65
-51
-39
-32
-11
-16
-39
-25
-7
-4
4
11
4
7
18
11
9
11
-14
-32
2
25
-11
-32
-16
-21
-39
-30
-7
-11
-25
-14
11
18
11
7
4
37
263
824
1609
2214
1964
775
-149
-116
30
-121
-168
-116
-137
-149
-121
-112
-116
-95
-60
-49
-44
-18
-9
-23
-9
28
58
67
79
116
149
165
165
144
112
56
-11
-93
-177
-233
-277
-322
-343
-343
-338
-345
-355
-340
-315
-301
-287
-270
-261
-252
-275
-303
-273
-242
-254
-252
-228
-214
-207
-212
-219
-207
-196
-182
-175
-203
-235
-217
-179
-179
-191
-189
-179
-168
-172
-172
-151
-137
-137
-133
-123
-114
-102
-91
-81
-72
-56
-39
-35
-35
-18
2
0
2
25
37
28
28
51
70
67
72
70
72
86
88
63
37
46
77
114
147
147
126
123
133
128
128
140
140
130
128
140
149
147
137
128
179
467
1097
1966
2573
2029
513
-315
-65
21
-233
-240
-151
-191
-198
-151
-151
-168
-144
-119
-114
-107
-79
-46
-28
-2
37
74
100
133
177
219
245
254
252
245
207
151
95
28
-44
-93
-135
-172
-182
-168
-163
-165
-151
-135
-123
-102
-93
-91
-74
-58
-56
-49
-37
-37
-42
-35
-30
-23
-14
-18
-14
-4
-11
-32
-44
-65
-98
-86
-67
-98
-109
-88
-77
-98
-123
-112
-86
-93
-84
-53
-51
-51
-28
-18
-21
-11
2
11
21
23
28
46
56
46
53
60
60
72
86
88
84
72
63
77
93
81
65
70
70
58
63
70
65
63
74
70
42
30
35
21
9
11
16
23
23
2
2
23
21
-2
-7
-2
-11
-21
-18
-30
-53
-46
-7
0
-23
-11
7
-18
-44
-23
4
7
2
11
16
21
28
35
44
39
18
121
530
1235
2074
2527
1754
277
-252
46
2
-200
-126
-77
-130
-100
-60
-70
-58
-23
-7
18
44
53
67
98
135
161
179
214
249
280
315
343
348
333
317
294
226
130
56
-14
-81
-114
-130
-147
-147
-140
-140
-130
-119
-121
-128
-144
-170
-177
-156
-147
-154
-151
-154
-163
-161
-161
-177
-184
-179
-168
-161
-158
-154
-147
-140
-140
-135
-119
-112
-116
-109
-88
-72
-74
-74
-56
-44
-51
-44
-21
-7
-16
-18
-9
9
16
16
25
32
21
21
39
30
-14
-28
-9
-23
-58
-63
-51
-46
-42
-30
-23
-18
-9
4
9
9
18
28
25
28
44
56
58
65
63
53
44
18
-21
-14
25
44
58
81
88
74
53
51
60
58
60
72
72
67
74
88
95
79
72
226
681
1403
2200
2419
1375
18
-191
128
-11
-168
-67
-58
-112
-79
-58
-81
-86
-81
-91
-100
-88
-67
-51
-25
7
37
79
109
137
177
212
233
245
242
217
165
102
37
-25
-84
-133
-161
-165
-172
-184
-182
-172
-182
-207
-207
-193
-203
-196
-165
-154
-158
-144
-121
-114
-116
-112
-93
-77
-70
-77
-77
-56
-42
-39
-28
-25
-25
-2
11
-7
-4
18
28
23
25
39
44
32
30
28
2
-11
-2
4
0
0
14
32
35
21
18
37
51
46
44
46
56
70
65
70
86
70
60
86
93
81
95
100
88
88
84
86
91
84
79
86
93
79
63
51
42
39
63
79
74
65
53
42
16
-16
-16
-18
-39
-32
-9
-9
-23
-30
0
207
733
1466
2109
1966
710
-345
-270
-88
-301
-345
-240
-266
-289
-247
-226
-226
-205
-172
-151
-137
-114
-84
-60
-46
-11
32
65
84
114
158
189
189
186
168
112
49
-9
-81
-151
-203
-247
-268
-277
-291
-298
-294
-289
-270
-233
-212
-214
-203
-172
-151
-168
-193
-191
-170
-158
-158
-137
-107
-109
-109
-93
-95
-102
-91
-79
-70
-58
-63
-74
-65
-56
-53
-39
-28
-25
-14
4
4
9
28
42
42
44
44
53
70
77
81
91
84
77
86
100
100
93
91
95
95
100
114
116
107
105
119
133
128
123
133
133
123
130
135
137
140
135
135
142
137
123
112
95
84
100
119
126
119
91
67
77
77
60
86
102
58
30
58
70
46
72
245
663
1298
1905
1961
1081
42
-100
133
14
-105
-37
-21
-58
-44
-18
-23
-21
4
21
16
21
32
39
60
88
114
154
165
147
172
210
214
221
217
177
116
58
-11
-95
-154
-193
-228
-247
-266
-266
-242
-224
-226
-231
-224
-221
-259
-280
-242
-217
-224
-205
-189
-231
-263
-228
-198
-198
-207
-212
-184
-161
-168
-165
-144
-156
-151
-112
-114
-137
-123
-107
-109
-100
-79
-79
-102
-119
-112
-107
-100
-91
-91
-77
-65
-70
-65
-58
-51
-39
-23
-9
-11
-9
11
18
16
30
42
39
46
49
53
74
84
77
77
91
86
67
74
88
70
58
79
107
140
147
109
70
37
4
7
25
25
14
23
42
53
51
46
46
126
429
1001
1651
2029
1620
520
-107
53
105
-70
-60
-4
-30
-18
11
7
21
56
67
79
107
114
119
147
177
212
242
266
301
336
352
366
366
333
296
259
193
112
14
-84
-144
-189
-228
-240
-247
-268
-263
-235
-224
-212
-210
-231
-233
-210
-198
-186
-161
-175
-221
-212
-177
-172
-168
-158
-156
-142
-126
-119
-112
-105
-102
-95
-93
-98
-98
-93
-91
-109
-130
-114
-91
-93
-93
-79
-63
-51
-49
-39
-28
-32
-30
-4
11
-2
-2
21
18
7
18
32
23
23
42
35
11
2
14
21
14
16
25
21
14
9
2
-2
-11
-28
-14
25
32
9
-2
-9
-18
-16
-11
-11
-14
-18
-14
-14
-28
-39
2
233
780
1539
2176
1947
651
-331
-205
-25
-226
-249
-144
-177
-196
-142
-116
-114
-93
-63
-37
-14
16
58
86
98
126
179
226
247
268
298
322
331
324
296
259
203
135
67
-16
-98
-147
-184
-226
-245
-240
-235
-245
-261
-256
-235
-219
-207
-191
-184
-182
-170
-154
-135
-133
-135
-116
-98
-98
-105
-105
-107
-112
-105
-84
-70
-72
-70
-53
-53
-86
-102
-77
-67
-77
-63
-39
-32
-30
-28
-14
-2
0
9
28
30
25
30
44
53
53
49
44
37
35
46
63
58
46
60
77
72
67
74
84
84
70
56
32
11
39
98
107
88
86
77
72
84
88
81
65
30
9
25
23
0
18
189
651
1399
2197
2319
1184
-95
-200
102
-53
-179
-79
-81
-149
-142
-116
-102
-81
-63
-49
-18
9
30
60
86
105
140
