3720
4286
4951
5652
6085
6433
6807
7134
7421
7718
7950
8064
8184
8358
8514
8658
8753
8764
8806
8894
8961
9036
9096
9066
9019
9050
9110
9140
9101
9022
9003
9012
9029
9061
8978
8832
8804
8811
8832
8915
8829
8581
8518
8546
8502
8444
8321
8194
8159
8117
8068
8027
7904
7806
7802
7860
8064
8324
8430
8082
7159
6577
6858
7032
6807
6777
6818
6709
6663
6642
6505
6403
6378
6324
6273
6213
6104
6034
6004
5967
5949
5893
5793
5744
5714
5659
5610
5508
5346
5237
5141
5053
4968
4759
4573
4555
4506
4388
4327
4281
4191
4119
4084
4049
3977
3894
3838
3799
3757
3720
3680
3620
3557
3518
3483
3439
3390
3339
3293
3230
3172
3142
3103
3040
3012
2994
2920
2843
2817
2785
2736
2713
2702
2669
2627
2593
2560
2528
2507
2474
2430
2398
2370
2340
2319
2286
2240
2205
2175
2147
2129
2089
2045
2022
1994
1969
1952
1890
1811
1797
1799
1778
1765
1758
1748
1727
1690
1662
1642
1614
1591
1574
1553
1540
1519
1465
1461
1662
2008
2305
2381
1899
1052
779
1104
1208
1122
1192
1231
1178
1178
1185
1131
1104
1124
1124
1110
1120
1127
1122
1131
1136
1136
1150
1166
1168
1161
1145
1115
1076
1039
999
943
874
804
737
679
654
644
626
614
612
605
605
612
605
586
561
535
542
563
558
549
547
552
554
556
554
547
538
533
538
538
528
514
510
507
494
477
477
473
466
468
475
475
473
466
442
419
422
431
422
412
412
417
419
424
417
408
408
410
412
415
405
389
389
398
398
389
361
338
336
345
357
371
371
361
371
382
371
354
333
315
324
345
347
322
259
192
190
331
630
960
1180
985
208
-371
-164
102
32
46
136
111
99
134
136
139
166
187
201
211
215
224
231
241
276
315
333
357
382
389
364
329
308
294
269
220
169
120
69
39
41
44
27
13
16
25
34
44
60
69
78
85
97
115
122
118
125
134
143
150
150
143
139
139
148
157
153
146
146
150
153
146
115
76
60
64
74
85
92
90
88
90
102
106
104
106
95
64
51
64
62
41
37
34
13
2
11
25
41
55
53
41
34
30
13
6
4
-9
-6
27
37
9
-16
69
380
786
1036
837
41
-586
-380
-64
-118
-97
16
4
-9
41
53
51
81
97
104
127
143
153
185
211
218
236
276
315
324
294
282
294
278
243
208
148
88
48
9
-37
-74
-78
-71
-74
-71
-64
-60
-51
-30
-13
-2
11
18
23
30
32
30
23
27
37
46
46
44
41
44
51
60
62
60
57
60
60
51
41
41
34
27
18
9
4
-2
-16
-16
-2
0
-6
0
6
-4
-9
2
-2
-11
-6
6
34
67
74
57
48
48
44
41
51
46
23
6
23
37
9
-23
115
491
885
1062
695
-171
-598
-269
-62
-146
-85
-6
-46
-34
20
37
44
53
55
78
109
122
139
160
183
222
266
301
329
336
340
359
354
329
296
234
166
125
88
51
25
-2
-25
-23
-11
-9
-13
-18
-6
13
32
44
37
25
39
57
64
71
64
37
16
18
34
34
16
6
16
25
23
4
-37
-60
-53
-53
-62
-74
-104
-118
-102
-85
-71
-69
-81
-90
-83
-76
-71
-83
-102
-113
-122
-125
-111
-88
-74
-76
-76
-76
-83
-92
-104
-104
-99
-97
-90
-88
-102
-120
-134
-27
299
698
971
825
32
-651
-487
-176
-227
-206
-95
-111
-127
-78
-76
-106
-99
-69
-53
-39
-11
9
32
76
118
148
185
215
211
204
190
176
183
171
125
74
25
-23
-60
-88
-97
-97
-95
-88
-81
-74
-60
-41
-32
-25
-11
2
18
34
34
37
51
57
62
60
48
53
69
62
57
62
60
71
85
71
57
71
88
83
81
85
88
83
85
95
83
48
27
32
46
67
76
74
83
95
92
71
44
39
46
39
27
34
48
30
-34
-16
310
788
1052
902
155
-628
-579
-192
-180
-197
-74
-55
-74
-25
4
-9
-11
18
44
51
71
97
111
132
176
222
257
282
310
345
361
354
347
308
236
171
113
57
9
-37
-64
-64
-62
-69
-71
-97
-115
-88
-55
-46
-46
-67
-83
-67
-62
-62
-46
-39
-41
-25
-9
-9
-11
-13
-13
-4
9
16
6
-2
0
9
23
37
13
-18
-6
20
18
9
4
-2
0
18
30
30
13
-11
-25
113
524
967
1108
735
-104
-603
-324
-64
-127
-62
57
37
30
78
78
69
95
106
104
113
113
97
92
120
155
176
190
208
224
234
234
222
192
139
69
4
-57
-111
-148
-166
-162
-146
-146
-153
-148
-136
-122
-111
-106
-90
-64
-57
-55
-39
-37
-74
-88
-67
-60
-69
-76
-81
-76
-67
-64
-60
-53
-48
-41
-37
-34
-30
-25
-18
2
16
20
37
57
57
48
44
37
41
44
37
18
0
-2
-20
-23
187
591
916
1001
561
-287
-586
-215
-60
-132
-37
34
11
46
85
78
76
99
122
132
141
153
157
169
201
236
269
299
327
347
364
366
345
303
248
190
136
81
16
-41
-88
-109
-109
-115
-141
-176
-220
-220
-187
-176
-183
-169
-150
-136
-120
-106
-104
-104
-95
-83
-78
-97
-132
-150
-146
-143
-141
-132
-129
-134
-127
-109
-97
-95
-92
-95
-97
-88
-78
-71
-60
-57
-53
-27
-9
-16
-32
-44
-46
-37
-27
-20
-25
-30
-30
-39
-46
90
410
737
927
672
-127
-623
-357
-106
-148
-81
11
-25
-57
-46
-30
-11
6
20
27
44
76
106
134
160
180
215
264
301
322
320
292
264
248
220
173
111
46
2
-13
-20
-20
-25
-34
-27
-9
2
9
13
13
13
16
23
30
27
9
4
11
4
-6
-9
-16
-16
-11
-25
-41
-39
-39
-37
-25
-13
-13
-11
-9
-4
4
13
20
18
16
25
39
48
48
44
44
53
62
57
27
-6
-6
18
34
41
44
41
34
39
39
30
27
32
32
41
62
71
64
44
57
243
582
897
1076
765
-60
-468
-150
44
-37
20
92
64
76
111
106
106
120
118
118
127
139
153
176
199
224
231
229
257
289
299
301
294
276
250
208
150
95
55
23
4
-4
-20
-34
-32
-23
-20
-32
-32
-30
-67
-118
-120
-99
-104
-129
-153
-146
-127
-122
-113
-102
-99
-95
-88
-81
-71
-62
-55
-51
-46
-41
-30
-23
-20
-6
4
4
6
11
16
27
18
0
4
18
25
27
34
41
46
46
51
64
69
60
53
55
64
78
92
97
92
106
125
129
118
106
95
95
106
118
120
115
99
62
81
287
637
957
1052
556
-306
-554
-190
-78
-153
-51
11
-23
0
30
11
4
32
48
53
53
53
64
78
102
129
150
173
201
213
204
201
190
171
155
120
67
18
-30
-71
-78
-76
-83
-85
-85
-76
-57
-44
-34
-30
-27
-16
0
9
16
18
16
20
37
41
41
39
27
23
34
37
9
-13
-11
-2
6
18
25
23
18
25
34
41
39
6
-20
-6
9
11
4
-23
-46
-32
-16
-18
-37
-76
-95
-83
-74
-55
-41
-39
-25
-6
0
-4
-11
-13
-11
0
6
2
-4
-23
-39
74
396
758
983
790
-9
-635
-431
-141
-211
-192
-88
-104
-111
-76
-85
-95
-76
-62
-53
-51
-57
-46
-18
6
34
69
99
125
146
162
162
155
146
127
92
46
-2
-55
-97
-113
-120
-127
-132
-160
-192
-185
-169
-157
-148
-169
-183
-155
-125
-115
-102
-88
-76
-60
-53
-39
-23
-27
-30
-18
-4
2
4
13
20
23
27
41
48
44
53
64
60
46
34
32
44
62
69
74
92
95
69
55
57
53
48
55
64
55
55
55
32
13
164
577
990
1087
665
-211
-667
-343
-97
-162
-102
-20
-53
-53
-16
-39
-69
-41
-4
9
20
32
55
90
125
166
204
231
266
310
329
313
299
289
262
211
150
90
34
-4
-30
-41
-41
-44
-67
-81
-62
-39
-27
-20
-25
-18
-16
-34
-30
-6
-11
-13
6
18
25
32
20
9
16
25
27
25
-2
-34
-32
-9
-2
-4
0
2
-4
9
37
34
11
11
25
27
37
48
41
39
41
32
83
375
816
1090
957
245
-533
-526
-148
-111
-120
16
41
2
20
37
39
48
39
23
30
44
51
71
104
120
143
187
208
211
222
227
215
206
187
141
71
2
-57
-95
-111
-113
-120
-127
-129
-120
-99
-85
-81
-81
-83
-69
-44
-32
-32
-23
-9
-2
4
16
20
13
13
20
27
30
27
25
25
25
32
30
2
-13
0
20
37
39
25
13
6
2
0
0
13
32
34
13
9
162
528
897
1073
776
-69
-591
-310
-60
-132
-76
23
-6
-6
37
41
39
62
74
85
109
129
146
173
197
204
224
259
289
310
324
331
322
296
262
206
141
83
41
6
-9
-18
-34
-44
-37
-37
-46
-53
-55
-55
-64
-69
-67
-92
-120
-106
-95
-111
-120
-109
-104
-99
-90
-92
-90
-83
-74
-69
-67
-74
-88
-104
-102
-76
-62
-57
-57
-74
-81
-74
-76
-78
-71
-60
-48
-34
-23
-23
-51
-20
224
591
897
962
412
-415
-547
-164
-85
-143
-51
-18
-48
-18
2
-4
6
25
32
48
67
74
81
102
139
173
201
220
236
248
243
224
197
146
62
-2
-41
-85
-132
-185
-227
-215
-190
-183
-166
-153
-164
-169
-148
-125
-115
-111
-99
-78
-62
-46
-37
-34
-25
-9
2
11
13
-2
-20
-16
-2
0
-13
-32
-37
-34
-34
-32
-34
-39
-34
-20
-13
-13
-18
-25
-20
-2
20
27
27
37
57
62
53
51
46
44
48
48
44
53
48
18
32
234
582
899
1069
730
-109
-496
-160
25
-57
6
57
-2
9
37
-6
-13
27
44
53
76
92
102
129
166
201
227
245
271
296
313
317
308
289
262
218
166
113
62
30
11
4
9
13
6
9
23
30
37
44
46
51
55
62
74
78
78
81
69
53
60
60
44
37
32
27
9
-34
-74
-81
-74
-78
-81
-76
-76
-76
-90
-115
-120
-106
-99
-92
-88
-85
-97
-127
-136
-118
-109
-106
-104
-109
-99
-85
-88
-90
-90
-90
-74
-53
-46
-46
-34
-18
-11
-16
-30
-37
-39
-34
-27
-23
-20
-18
-37
-60
62
391
753
1004
865
88
-572
-405
-99
-148
-136
-23
-23
-32
4
16
18
44
67
78
92
111
127
150
185
215
224
222
243
278
296
301
296
287
271
238
183
120
44
-48
-111
-115
-115
-136
-153
-150
-139
-127
-115
-102
-97
-97
-81
-62
-55
-46
-39
-39
-30
-11
0
4
0
-4
4
18
25
27
23
20
20
13
16
25
23
23
34
46
53
57
53
55
64
74
78
78
74
76
88
97
102
97
74
55
69
83
78
69
64
74
95
109
102
92
95
102
99
90
90
88
83
90
102
111
102
48
6
190
572
923
1097
765
-92
-524
-206
-18
-106
-44
18
-27
-23
9
-30
-81
-88
-81
-74
-51
-32
-20
2
34
64
99
139
160
176
190
199
197
185
157
113
57
13
-25
-74
-127
-164
-169
-157
-150
-150
-146
-141
-134
-125
-125
-132
-122
-111
-102
-88
-83
-85
-81
-78
-71
-62
-64
-69
-67
-71
-71
-69
-92
-127
-122
-106
-104
-99
-88
-81
-69
-60
-55
-44
-34
-37
-39
-41
-34
-23
-16
-11
-2
13
18
13
13
20
30
44
55
46
39
55
64
46
18
-2
-11
-18
-32
-57
-60
-53
-74
-53
185
628
992
1027
489
-387
-656
-273
-132
-204
-99
-13
-46
-41
4
23
32
46
55
71
90
106
132
166
194
224
243
243
250
285
308
303
294
276
234
176
118
67
23
-13
-37
-41
-48
-57
-60
-55
-44
-25
-9
-2
4
13
30
44
53
53
57
71
81
74
62
37
18
23
34
34
23
11
9
13
23
34
37
34
34
41
46
46
51
51
60
71
76
90
113
111
78
53
48
53
41
-2
-34
-23
-18
-51
-60
122
549
939
1008
528
-354
-714
-340
-141
-211
-118
-51
-132
-132
-64
-57
-60
-41
-41
-32
0
30
48
64
85
120
166
204
227
220
211
215
208
169
115
51
-20
-81
-125
-155
-171
-185
-201
-197
-180
-173
-169
-162
-157
-141
-113
-90
-76
-74
-62
-39
-20
-16
-16
-13
0
9
16
25
30
20
6
13
30
34
34
37
34
32
37
39
34
32
41
60
78
83
62
48
53
55
51
53
53
53
57
67
83
88
48
37
234
607
923
1036
630
-218
-547
-190
-20
-99
-30
32
-2
11
39
20
9
18
18
25
44
48
64
97
122
148
183
213
241
266
276
276
269
241
192
139
78
23
-18
-48
-62
-62
-62
-60
-53
-53
-46
-34
-27
-16
-4
-2
6
20
25
30
37
39
46
55
55
46
18
-23
-48
-60
-76
-102
-134
-127
-85
-71
-71
-55
-48
-44
-32
-25
-32
-53
-83
-81
-44
-32
-27
-4
9
4
4
4
6
11
18
30
41
53
46
16
90
385
744
1013
974
301
-445
-398
-34
-25
-48
53
60
41
83
102
88
97
115
129
143
157
169
183
206
238
276
306
303
278
276
280
248
211
178
115
44
-9
-53
-95
-129
-146
-146
-134
-127
-122
-120
-113
-99
-88
-76
-67
-62
-57
-41
-25
-13
-4
-6
-9
4
18
23
16
4
4
18
25
30
30
23
25
41
51
53
51
46
53
64
71
74
71
64
69
78
81
85
81
71
69
74
81
90
97
97
88
78
67
51
34
20
23
39
46
32
0
-13
0
-13
13
234
589
904
1036
607
-236
-512
-160
-34
-102
-9
46
6
20
53
57
67
76
62
62
83
104
122
150
173
199
231
264
294
308
301
289
282
269
234
171
97
27
-34
-76
-88
-99
-113
-113
-111
-109
-95
-85
-85
-95
-104
-104
-109
-122
-113
-102
-106
-99
-90
-113
-139
-125
-111
-111
-113
-139
-160
-141
-122
-115
-106
-102
-95
-81
-69
-62
-57
-51
-41
-25
-13
-18
-34
-39
-23
-11
-9
0
9
6
16
25
23
25
30
37
53
69
76
88
97
85
76
78
74
69
71
78
88
92
78
60
178
545
955
1155
911
97
-547
-368
-62
-111
-92
18
9
-6
39
48
23
32
53
53
51
62
71
78
92
113
141
169
187
176
162
176
190
169
129
85
34
-11
-53
-92
-132
-150
-143
-132
-129
-125
-122
-125
-104
-71
-62
-62
-51
-39
-27
-11
4
11
9
9
13
20
32
39
27
9
2
11
18
13
6
9
13
-4
-18
-9
-6
-13
-4
6
16
16
13
32
48
60
81
85
67
55
60
62
69
74
62
62
81
71
37
129
505
960
1138
837
11
-630
-449
-118
-139
-118
-2
-13
-48
-9
13
4
4
9
4
6
32
53
60
71
106
148
180
211
245
252
236
229
224
192
118
11
-69
-109
-157
-201
-215
-220
-224
-208
-185
-173
-169
-160
-146
-120
-92
-83
-74
-55
-41
-32
-18
-13
-11
0
6
-4
-20
-23
-11
-9
-16
-6
11
13
13
18
18
18
23
-2
-44
-41
-18
-13
-4
18
32
34
32
30
27
23
32
41
41
53
71
55
27
185
586
960
1085
728
-109
-556
-248
-20
-97
-51
34
13
13
44
32
20
41
60
55
55
62
62
76
104
129
160
190
213
238
250
234
213
192
160
109
46
-13
-57
-88
-106
-111
-106
-104
-109
-109
-95
-81
-74
-67
-69
-92
-97
-71
-53
-53
-64
-88
-88
-64
-57
-60
-53
-55
-60
-51
-37
-37
-39
-37
-25
-13
-6
-4
-6
-18
-39
-48
-34
-32
-27
-6
11
23
44
51
39
30
37
46
51
48
44
55
67
51
13
92
391
756
1004
927
250
-461
-391
-41
-37
-46
60
55
27
69
90
90
106
109
109
127
148
157
173
178
187
224
257
271
287
292
271
252
236
199
120
11
-69
-104
-132
-157
-190
-231
-241
-238
-252
-243
-222
-222
-213
-185
-162
-148
-141
-134
-118
-97
-83
-69
-64
-64
-57
-55
-62
-55
-48
-48
-39
-27
-18
-11
-9
-9
0
11
23
30
27
25
32
41
46
46
39
37
48
76
88
83
90
104
104
99
92
78
69
69
76
83
85
55
0
-11
136
449
772
985
811
57
-528
-343
-69
-111
-85
4
-9
-9
34
41
37
55
74
85
99
113
129
139
148
178
211
238
266
292
303
310
310
296
269
224
162
95
37
-4
-25
-51
-71
-76
-85
-92
-83
-81
-81
-69
-64
-64
-51
-44
-39
-34
-41
-39
-25
-20
-16
-9
-6
-2
6
6
11
13
11
16
25
20
-4
-51
-81
-67
-48
-51
-44
-34
-27
-18
-11
-6
2
6
6
6
-2
-11
-6
-2
6
30
44
41
53
76
81
71
62
57
57
55
60
71
78
76
34
-9
136
487
821
1011
767
-37
-542
-266
-25
-115
-95
-9
-27
-27
11
16
6
25
41
51
67
78
85
104
134
155
169
178
180
183
185
176
155
111
41
-13
-60
-109
-162
-211
-241
-255
-269
-271
-266
-264
-255
-231
-215
-206
-194
-185
-173
-150
-132
-118
-109
-104
-95
-74
-60
-53
-46
-48
-41
-25
-11
-4
0
-2
2
18
30
23
4
-4
11
27
37
44
44
39
46
62
74
76
71
71
81
90
99
102
95
69
41
46
60
67
71
74
88
113
125
115
99
81
64
67
78
64
25
4
16
11
76
357
744
1022
1001
380
-398
-445
-97
-71
-109
0
16
-30
-16
-9
-16
2
18
18
25
41
62
74
76
85
118
153
183
215
236
236
229
227
220
197
155
97
44
6
-18
-34
-51
-62
-71
-95
-99
-83
-71
-62
-46
-32
-18
-6
-4
-11
-16
-16
-9
0
4
9
9
9
6
-2
-30
-48
-32
-20
-25
-37
-67
-81
-62
-53
-57
-44
-32
-30
-16
-6
-4
0
-2
-4
2
11
16
6
6
39
62
57
46
37
30
37
46
51
57
74
76
53
90
364
828
1145
1043
354
-500
-619
-241
-178
-222
-95
-51
-92
-62
-30
-41
-32
-9
-6
-6
6
27
53
83
111
141
178
220
252
271
273
250
211
192
176
122
53
-2
-46
-76
-88
-95
-99
-106
-106
-90
-76
-78
-88
-81
-57
-41
-25
-11
-4
-2
4
18
25
30
30
30
34
41
44
46
44
39
46
57
62
48
18
4
16
23
25
34
37
34
37
53
78
81
62
51
55
62
69
71
67
71
81
74
64
201
572
957
1117
809
-16
-540
-280
-30
-97
-41
62
4
-51
-23
-18
-44
-44
-39
-41
-25
4
20
46
74
92
127
176
213
229
236
241
238
224
197
148
83
16
-27
-51
-67
-71
-85
-113
-120
-104
-90
-88
-90
-90
-74
-53
-44
-57
-85
-85
-60
-48
-37
-27
-30
-30
-18
-9
-4
-2
-2
0
6
16
23
20
20
27
34
37
34
30
32
46
46
37
48
71
71
60
51
48
30
-4
-9
11
16
13
6
-11
102
433
793
1013
841
81
-528
-336
-34
-76
-57
32
0
-27
11
27
16
25
46
55
67
78
85
104
134
155
169
190
211
222
229
229
215
199
169
120
64
9
-39
-71
-92
-99
-99
-102
-97
-90
-92
-85
-81
-88
-78
-64
-55
-39
-23
-18
-16
-9
-2
9
13
13
0
-30
-46
-27
-16
-20
-18
-16
-11
2
13
16
13
16
20
9
-18
-27
-30
-37
-18
11
20
20
39
53
53
44
41
39
39
44
55
64
74
64
37
78
324
681
978
1052
535
-289
-459
-85
6
-60
30
71
30
41
67
57
57
81
95
104
120
129
139
162
194
224
255
276
294
315
324
322
308
257
185
129
71
2
-57
-129
-190
-199
-215
-257
-280
-280
-273
-255
-236
-224
-215
-211
-199
-178
-162
-150
-139
-139
-134
-113
-92
-88
-88
-90
-85
-67
-57
-53
-53
-55
-46
-30
-23
-18
-13
-20
-30
-32
-23
-11
-13
-16
-2
11
20
23
18
16
20
30
37
44
53
55
67
92
111
104
83
71
74
83
90
92
88
85
88
76
74
220
538
867
1018
616
-229
-556
-211
-53
-122
-32
30
-9
4
41
46
55
76
83
83
97
122
148
166
183
213
243
269
303
329
322
294
264
252
236
178
102
41
-11
-62
-90
-106
-120
-113
-104
-104
-99
-95
-92
-83
-71
-60
-55
-48
-34
-23
-20
-16
-9
-11
-13
-2
0
-9
-25
-46
-51
-39
-30
-30
-51
-83
-78
-57
-55
-53
-44
-34
-25
-16
-13
-4
2
4
11
23
25
20
23
30
39
46
53
62
60
55
64
76
64
46
37
44
57
64
60
64
76
67
48
153
517
955
1171
930
129
-519
-359
-74
-150
-129
9
0
-32
11
30
27
44
37
16
27
39
20
16
41
64
76
104
146
176
190
176
141
113
99
81
37
-25
-78
-115
-139
-141
-139
-157
-166
-153
-136
-122
-111
-106
-104
-99
-88
-64
-51
-53
-51
-30
-16
-11
-11
-18
-16
0
2
4
13
9
2
16
32
32
27
23
30
41
51
55
55
44
39
51
55
51
44
44
60
62
37
25
20
6
13
30
39
44
48
44
25
55
306
767
1110
1064
452
-373
-524
-136
-44
-106
11
74
39
57
76
41
37
64
69
41
9
0
18
51
78
106
134
162
197
224
236
231
218
194
157
104
46
-13
-67
-99
-111
-111
-109
-113
-113
-109
-109
-109
-102
-90
-81
-69
-55
-62
-81
-74
-53
-46
-39
-27
-20
-23
-20
-16
-13
-4
4
2
0
4
11
20
23
23
27
27
30
41
46
32
18
18
23
25
11
-9
0
23
27
11
-27
-62
-57
-39
-32
-39
-67
-81
-64
-76
-44
208
593
890
939
412
-417
-584
-201
-104
-166
-78
-48
-92
-76
-46
-46
-48
-46
-62
-85
-81
-57
-46
-32
-6
20
51
88
115
129
129
129
127
111
69
11
-51
-102
-141
-169
-183
-192
-204
-204
-185
-173
-169
-160
-143
-127
-109
-95
-88
-102
-120
-104
-78
-69
-64
-57
-51
-39
-25
-16
-16
-13
-4
4
13
23
23
20
30
39
34
27
25
27
37
51
60
62
62
46
23
9
18
41
48
48
64
95
111
104
83
69
76
90
99
104
99
95
99
90
139
389
735
1008
1059
538
-271
-417
-55
20
-30
69
104
71
88
111
109
111
118
113
109
113
122
132
143
132
106
127
173
199
211
199
160
141
141
95
30
-18
-71
-118
-129
-132
-139
-141
-139
-132
-141
-153
-141
-125
-122
-109
-85
-67
-57
-55
-48
-32
-16
-4
0
0
0
11
23
27
18
4
4
13
20
25
6
-30
-30
-9
-11
-9
4
4
6
16
25
30
30
32
34
37
46
48
39
34
32
32
46
51
16
-9
4
9
0
-9
-20
-20
-18
-16
-9
-4
-4
-9
-32
6
248
605
902
934
354
-454
-552
-192
-143
-183
-76
-51
-83
-53
-25
-34
-37
-18
-16
-34
-27
-4
2
13
46
74
104
141
169
187
199
201
199
194
164
118
64
9
-39
-67
-81
-83
-81
-74
-67
-60
-57
-44
-23
-16
-13
-16
-20
-20
-34
-55
-37
-11
-9
-9
-6
-2
11
20
16
4
-4
-11
2
13
11
11
18
30
41
46
46
48
53
62
74
78
69
51
48
62
71
69
64
60
67
88
99
106
120
127
122
120
118
113
111
113
120
127
122
120
106
115
338
786
1155
1192
658
-229
-533
-178
-34
-102
-23
25
-11
-2
18
11
9
20
32
44
62
74
57
39
48
74
104
141
164
180
204
220
218
194
136
64
13
-27
-81
-125
-153
-169
-169
-148
-134
-141
-143
-122
-102
-88
-67
-48
-48
-41
-25
-11
-9
-11
-16
-9
-2
4
9
0
-9
0
11
16
13
6
-11
-27
-25
-16
-18
-32
-41
-37
-34
-23
-9
-18
-18
2
16
6
-6
-20
-27
-25
-27
-44
-46
-37
-41
-53
37
394
846
1034
770
-2
-665
-535
-199
-201
-183
-62
-62
-88
-48
-37
-51
-34
-16
-20
-16
4
25
48
76
106
146
180
208
241
269
276
271
257
227
178
122
69
9
-55
-92
-92
-83
-92
-99
-90
-78
-74
-62
-46
-32
-18
-4
4
13
25
39
48
44
27
13
6
9
11
13
16
18
20
30
37
32
16
-9
-41
-51
-32
-30
-30
-16
0
9
23
39
46
44
39
37
34
41
51
51
48
62
67
39
81
354
760
1034
1004
398
-389
-459
-95
-41
-71
39
62
25
57
90
85
92
106
113
122
132
134
146
162
176
190
213
236
238
231
220
208
201
178
118
25
-62
-109
-139
-185
-215
-213
-204
-197
-178
-169
-176
-176
-148
-122
-113
-102
-104
-129
-136
-113
-97
-88
-74
-64
-60
-55
-48
-37
-41
-51
-37
-13
-9
-11
-16
-27
-27
-13
2
9
9
20
48
64
67
51
32
37
53
60
60
57
55
64
57
95
333
688
964
1006
475
-333
-491
-132
-46
-92
11
44
-9
2
32
41
48
55
74
92
92
104
143
169
190
215
238
262
296
322
322
282
227
204
178
125
69
16
-34
-71
-88
-88
-95
-111
-120
-109
-113
-141
-150
-141
-127
-106
-92
-97
-99
-92
-88
-74
-62
-74
-81
-67
-57
-51
-46
-41
-30
-25
-55
-88
-81
-55
-53
-62
-55
-53
-81
-90
-57
-27
-30
-41
-27
11
20
-6
-25
-4
13
11
9
16
23
34
25
11
192
575
920
1069
721
-146
-614
-308
-85
-153
-78
0
-51
-48
6
18
27
48
55
62
78
78
71
71
95
136
171
190
211
234
248
257
255
248
229
171
99
44
-13
-76
-102
-97
-97
-113
-118
-106
-97
-97
-88
-71
-60
-67
-76
-62
-41
-44
-53
-48
-60
-83
-76
-53
-44
-48
-71
-97
-81
-69
-74
-55
-34
-37
-39
-41
-46
-51
-78
-85
-39
-11
-41
-81
-104
-90
-46
-20
-25
-25
-30
-60
-55
-13
-13
-30
0
25
-9
-41
41
350
760
1059
1036
364
-477
-554
-192
-136
-176
-60
-20
-74
-51
-2
-2
23
55
30
32
78
111
132
141
157
194
238
287
313
320
327
310
292
287
257
190
122
64
32
11
-25
-67
-81
-69
-53
-48
-62
-51
-9
-20
-55
-37
-23
-46
-41
-30
-46
-60
-67
-106
-148
-127
-97
-102
-129
-171
-171
-134
-129
-141
-136
-129
-150
-185
-173
-143
-150
-162
-132
-102
-97
-67
-32
-48
-62
-53
-57
-60
-39
-25
-20
4
23
-11
4
308
834
1171
1050
366
-484
-619
-215
-111
-153
-51
-4
-9
9
18
37
46
13
-4
27
74
113
134
81
-143
-303
-136
25
13
78
178
169
143
178
178
104
62
64
4
-88
-118
-120
-136
-122
-92
-95
-81
-32
-25
-46
-39
-4
69
106
-44
-299
-371
-266
-252
-313
-278
-222
-220
-208
-197
-194
-169
-134
-74
85
269
271
127
81
132
134
143
192
197
211
243
222
187
173
171
176
157
120
118
139
122
76
122
422
867
1155
1083
424
-422
-496
-76
-18
-71
62
71
-23
-13
32
18
-13
-9
30
46
39
60
104
136
157
187
227
269
296
315
317
313
310
278
211
148
90
41
6
-23
-46
-55
-46
-48
-64
-67
-62
-62
-60
-69
-60
-37
-48
-67
-53
-53
-67
-64
-60
-69
-76
-67
-60
-64
-57
-51
-60
-62
-53
-64
-69
-71
-71
-55
-32
-20
-18
-16
-4
4
0
-48
-109
-113
-83
-69
-74
-95
-111
-99
-95
-95
46
398
746
957
797
18
-626
-431
-111
-141
-109
-6
-46
-92
-64
-41
-25
-9
-20
-23
4
34
53
78
106
134
162
206
245
271
280
266
255
262
231
171
109
41
-11
-30
-39
-44
-48
-69
-81
-67
-55
-46
-30
-44
-71
-57
-37
-48
-67
-81
-92
-99
-109
-115
-139
-164
-157
-143
-143
-160
-201
-222
-194
-176
-183
-183
-173
-169
-148
-127
-136
-136
-122
-125
-125
-109
-95
-81
-62
-37
-11
2
6
2
-4
6
27
46
67
85
85
71
81
245
591
941
1180
1008
229
-345
-118
143
71
109
204
160
141
169
150
150
190
201
180
173
171
153
160
194
215
231
264
303
333
343
329
315
310
282
231
180
127
78
48
37
16
-18
-48
-53
-46
-55
-57
-44
-37
-25
-9
-11
-23
-20
-16
-18
-27
-30
-32
-48
-57
-46
-44
-46
-34
-37
-48
-44
-37
-37
-30
-32
-41
-34
-16
-16
-18
-16
-18
-11
2
0
-9
-9
-4
-6
-16
-13
2
25
39
39
30
25
23
20
23
37
51
46
9
-39
2
255
619
916
997
517
-322
-556
-197
-102
-211
-143
-74
-95
-81
-51
-53
-41
-13
2
16
25
39
55
78
111
143
169
187
206
231
245
243
222
201
180
146
88
25
-37
-81
-90
-92
-104
-127
-146
-141
-125
-125
-153
-180
-185
-178
-169
-155
-136
-129
-141
-134
-111
-104
-97
-85
-88
-85
-69
-60
-55
-51
-48
-48
-51
-48
-41
-37
-39
-25
-6
0
6
9
0
-4
6
20
32
23
-4
2
41
62
55
34
23
34
53
62
62
62
69
69
55
146
456
825
1059
950
241
-463
-366
-27
-44
-41
71
55
4
30
55
60
78
97
99
109
132
153
171
199
224
238
266
306
331
343
343
333
310
280
241
178
111
62
18
-25
-53
-76
-97
-97
-97
-99
-85
-74
-78
-69
-53
-44
-37
-57
-95
-85
-62
-64
-57
-51
-55
-48
-37
-37
-44
-55
-55
-39
-41
-41
-20
-13
-23
-13
-9
-13
-6
-11
-20
4
25
20
16
9
0
4
16
20
4
-25
-30
-30
-2
259
744
1104
1036
354
-519
-649
-245
-160
-194
-64
-18
-51
-25
-4
-2
23
41
44
48
60
81
104
129
148
164
197
243
271
269
248
213
192
187
150
64
-18
-76
-134
-187
-218
-236
-248
-250
-245
-231
-213
-204
-201
-192
-185
-187
-180
-160
-146
-139
-118
-95
-97
-99
-88
-71
-62
-55
-55
-53
-55
-67
-67
-48
-37
-39
-27
-4
6
4
0
-11
-13
6
25
34
48
48
30
46
264
737
1150
1145
547
-329
-582
-187
-37
-113
0
95
62
64
88
76
85
113
125
134
143
129
122
157
199
229
259
282
306
331
329
303
296
280
234
178
125
67
20
-16
-39
-46
-48
-46
-46
-53
-55
-60
-62
-41
-32
-48
-51
-39
-44
-51
-53
-55
-51
-46
-48
-48
-51
-57
-60
-53
-41
-32
-30
-30
-18
4
16
11
-4
-16
-6
0
-9
-13
-4
-6
-16
-20
102
449
828
1001
753
-41
-626
-410
-122
-169
-127
-11
-55
-129
-113
-83
-78
-57
-37
-27
-13
4
25
55
92
115
127
153
185
208
215
211
208
192
160
118
60
-4
-53
-83
-97
-104
-113
-115
-118
-113
-99
-92
-102
-102
-90
-74
-55
-46
-46
-37
-32
-41
-48
-41
-34
-30
-25
-20
-20
-20
-25
-25
-18
-16
-9
2
-6
-18
-27
-46
-51
-55
-78
-76
-55
-57
-71
-113
-127
102
510
832
941
503
-357
-635
-262
-127
-204
-109
-39
-60
-34
2
0
11
39
57
74
90
99
113
143
180
211
248
280
292
313
333
320
296
292
264
204
150
90
20
-9
-11
-18
-18
-9
-11
-18
-16
2
13
13
18
18
16
27
41
48
48
51
53
34
4
13
34
25
23
32
32
30
23
18
27
37
48
60
41
13
13
18
13
9
4
6
25
27
9
-9
-39
25
329
739
1052
997
264
-545
-524
-162
-162
-204
-125
-134
-155
-111
-95
-115
-109
-71
-48
-39
-6
23
27
51
90
118
150
192
215
222
236
252
248
224
176
104
30
-20
-48
-78
-95
-83
-78
-71
-51
-55
-74
-64
-37
-16
-11
-18
-13
6
23
34
27
-9
-32
-11
6
2
6
9
4
18
41
27
20
41
41
32
48
62
55
48
37
20
30
62
57
48
74
92
85
85
85
67
48
51
55
53
51
41
0
-16
178
575
953
1129
705
-250
-651
-296
-146
-238
-132
-44
-90
-92
-60
-62
-55
-18
4
0
11
51
74
74
95
134
164
197
224
241
248
220
192
197
178
118
74
41
-6
-44
-60
-69
-78
-71
-57
-60
-78
-76
-51
-44
-48
-25
-2
-9
-4
6
9
27
44
32
23
34
44
41
37
51
57
41
37
60
62
32
9
13
25
30
25
9
-16
-25
-23
-23
-25
-25
-27
-30
-20
-6
-9
-39
-64
-55
-37
-32
-32
-27
-25
-34
-57
-20
252
716
1064
1032
378
-489
-633
-292
-255
-292
-169
-134
-166
-127
-76
-60
-53
-39
-23
-9
6
32
53
78
106
129
162
199
206
201
208
208
199
192
173
113
37
-23
-83
-139
-166
-192
-231
-241
-220
-208
-204
-190
-183
-166
-136
-127
-125
-109
-102
-90
-55
-37
-32
-20
-11
-6
0
-2
-9
-16
-20
-27
-32
-30
-32
-53
-67
-69
-78
-78
-60
-55
-69
-57
-18
4
-16
-74
-122
-113
-90
-74
-53
-37
-30
-23
-41
2
296
737
1039
1029
429
-408
-526
-148
-74
-127
-39
-18
-69
-46
0
6
18
39
46
60
76
88
125
173
199
215
250
289
320
338
340
336
331
310
276
222
164
106
57
30
23
20
11
-4
-18
-16
-2
2
2
11
25
39
55
60
55
51
51
53
48
20
-27
-55
-53
-46
-48
-51
-48
-48
-53
-48
-37
-32
-32
-27
-27
-39
-62
-78
-62
-37
-32
-27
0
20
20
13
6
-2
-13
-44
-55
-39
-30
-34
-48
-2
259
661
985
1050
496
-354
-507
-127
-62
-118
2
34
-18
11
51
41
44
69
88
97
113
129
146
166
201
236
262
287
313
329
345
350
336
306
243
162
111
71
23
-13
-30
-34
-30
-37
-64
-97
-115
-104
-83
-83
-88
-85
-88
-90
-81
-71
-69
-62
-60
-60
-51
-41
-44
-48
-48
-34
-23
-20
-27
-30
-20
-6
-2
2
9
6
-2
0
11
16
9
0
6
20
37
48
48
57
78
90
85
74
62
57
67
78
88
92
83
55
57
248
635
1011
1171
776
-115
-552
-248
-62
-157
-106
-30
-51
-37
-2
-4
2
30
44
53
67
76
92
120
148
178
206
229
255
287
306
315
313
289
259
231
185
125
67
20
-18
-41
-46
-48
-55
-71
-83
-83
-85
-92
-99
-99
-83
-71
-64
-55
-53
-57
-46
-27
-25
-27
-34
-39
-32
-20
-18
-16
-16
-13
-13
-20
-25
-20
-30
-55
-74
-62
-55
-88
-115
-99
-83
-83
-88
-109
-122
-104
-81
-60
-37
-27
-39
-46
-37
-23
-13
-13
-9
0
4
-4
2
192
614
1013
1138
707
-185
-579
-234
-53
-134
-46
37
-4
4
51
55
60
78
85
92
111
132
150
166
190
220
250
282
306
322
338
345
324
299
280
243
178
99
20
-44
-74
-90
-113
-129
-143
-157
-183
-213
-208
-187
-183
-178
-185
-206
-183
-157
-160
-143
-125
-129
-125
-109
-109
-111
-109
-109
-102
-85
-74
-74
-74
-62
-51
-48
-48
-48
-41
-18
2
13
23
34
39
34
30
27
32
34
39
48
60
64
39
78
396
888
1173
1013
273
-507
-487
-97
-78
-132
-25
4
-20
11
37
32
48
67
74
95
122
134
148
176
201
236
273
306
317
301
296
313
308
276
218
153
97
39
-23
-64
-88
-109
-120
-125
-141
-155
-160
-162
-148
-120
-99
-95
-92
-85
-71
-55
-41
-32
-37
-46
-44
-27
-23
-51
-92
-102
-97
-102
-97
-95
-109
-99
-74
-57
-69
-90
-85
-64
-57
-51
-48
-60
-67
-53
-44
-32
-25
-51
-74
76
484
913
1087
758
-102
-640
-371
-115
-194
-157
-57
-83
-90
-39
-44
-88
-88
-55
-39
-32
-20
-6
9
41
81
111
136
169
204
220
227
234
229
190
136
90
39
-9
-44
-71
-97
-106
-104
-111
-127
-125
-115
-111
-102
-109
-136
-143
-125
-113
-104
-95
-90
-85
-78
-69
-57
-55
-53
-51
-55
-51
-39
-39
-46
-44
-30
-16
-18
-23
-6
13
13
16
18
11
6
20
30
37
51
53
32
20
190
598
997
1131
730
-141
-584
-273
-55
-132
-57
39
9
9
48
48
44
55
60
69
88
104
122
148
166
190
227
252
252
252
273
282
266
252
241
199
127
69
32
-2
-18
-16
-18
-25
-27
-23
-6
0
-13
-25
-16
4
18
32
41
46
41
32
34
41
37
20
4
0
-2
-13
-25
-53
-92
-97
-85
-90
-99
-118
-136
-122
-92
-78
-74
-74
-88
-104
-99
-85
-83
-81
-60
-46
-44
-62
-44
166
533
846
962
531
-333
-637
-271
-120
-187
-99
-46
-90
-67
-25
-25
-23
-11
-6
6
20
30
30
34
51
83
118
150
173
183
187
194
192
185
157
102
46
4
-25
-48
-64
-78
-81
-69
-53
-37
-32
-34
-25
-9
2
16
27
25
13
23
39
44
20
-13
-13
9
18
18
18
16
20
25
0
-27
-32
-27
-27
-25
-30
-37
-46
-55
-53
-44
-37
-34
-39
-46
-46
-46
-55
-53
-32
-25
-23
2
30
32
13
4
11
23
32
39
39
39
44
39
74
289
623
932
1059
619
-208
-454
-104
9
-60
30
85
46
48
67
71
88
88
57
44
67
90
106
127
148
171
199
227
236
227
229
241
238
231
224
192
139
95
55
23
4
-6
-11
-6
-6
-16
-16
-6
0
6
16
23
32
37
41
48
41
25
2
-30
-46
-39
-41
-46
-53
-71
-71
-64
-67
-67
-64
-64
-60
-53
-53
-48
-48
-57
-57
-48
-46
-44
-41
-39
-30
-23
-27
-37
-41
-37
-27
-18
-13
-13
-27
-32
-9
0
-18
-55
-99
-113
-90
-78
-85
-83
-85
-109
-81
132
475
783
911
473
-357
-607
-252
-143
-215
-111
-46
-76
-55
-23
-20
-2
25
34
44
62
76
99
129
157
178
197
222
259
285
294
292
273
255
245
227
183
125
64
25
13
2
-18
-41
-51
-53
-55
-46
-39
-48
-62
-76
-78
-60
-57
-90
-115
-99
-78
-71
-69
-69
-67
-60
-67
-64
-55
-57
-57
-39
-23
-13
-9
-9
-9
4
20
27
27
27
34
46
53
60
62
53
53
60
71
83
85
83
106
136
134
118
92
74
78
97
106
109
106
104
90
134
405
823
1124
1115
512
-324
-426
-37
6
-64
39
60
13
44
64
46
60
95
106
113
113
99
97
118
136
127
113
129
153
157
160
139
95
76
71
51
6
-46
-92
-122
-132
-139
-157
-160
-143
-136
-122
-99
-90
-78
-53
-44
-41
-30
-39
-51
-30
-13
-13
-6
-4
-13
-9
-2
4
16
18
18
27
32
34
32
30
39
46
41
39
25
6
25
55
53
41
41
39
39
30
13
25
46
44
23
69
361
848
1155
978
220
-558
-558
-176
-129
-148
-20
16
-6
27
51
44
57
83
83
88
102
111
125
141
148
150
160
180
208
229
236
231
220
199
169
125
67
4
-44
-74
-92
-109
-118
-122
-120
-106
-81
-67
-57
-48
-62
-71
-51
-34
-34
-32
-32
-34
-41
-39
-34
-46
-44
-25
-16
-13
-11
-23
-27
-9
9
23
16
-18
-32
-6
4
-11
-23
-18
-2
11
18
32
32
0
25
294
751
1073
1020
401
-424
-547
-153
-71
-132
-18
39
4
30
62
53
60
88
102
106
122
139
155
180
213
243
266
285
296
292
278
280
271
218
160
113
55
-13
-85
-155
-185
-183
-204
-222
-224
-227
-220
-199
-180
-169
-164
-160
-143
-127
-118
-113
-115
-118
-111
-97
-88
-102
-139
-166
-164
-155
-166
-176
-171
-157
-139
-122
-109
-102
-102
-109
-113
-104
-92
-90
-92
-92
-83
-92
-111
34
417
795
976
702
-122
-647
-371
-120
-199
-164
-69
-95
-113
-78
-55
-44
-25
-11
-2
18
44
71
97
120
148
178
211
241
266
276
278
271
257
238
208
153
95
57
34
20
16
9
4
6
2
-6
0
16
25
30
41
48
25
-4
2
18
18
20
27
23
11
6
13
13
-4
-20
-25
-41
-48
-32
-27
-27
-11
0
-20
-48
-60
-71
-71
-60
-51
-44
-37
-27
-34
-46
83
412
751
976
818
51
-549
-345
-53
-95
-67
27
11
0
39
55
57
74
83
85
99
125
134
129
143
173
201
231
262
282
285
280
278
276
255
211
139
57
11
-6
-25
-39
-44
-44
-39
-32
-27
-30
-53
-76
-60
-34
-30
-41
-64
-78
-62
-41
-37
-37
-37
-32
-18
-9
-2
-2
-6
0
13
23
25
20
9
13
25
39
51
53
53
62
74
74
62
34
9
6
4
-20
-32
-27
-32
-46
-34
136
475
790
969
679
-139
-586
-287
-76
-146
-78
9
-13
-11
11
11
25
48
57
48
25
27
62
90
113
134
136
146
183
213
218
213
204
197
190
162
115
67
18
-11
-25
-27
-27
-32
-34
-23
-9
-2
6
13
13
23
37
44
46
48
53
51
44
41
46
41
39
46
53
57
55
48
51
57
62
67
67
62
64
71
76
78
74
60
44
41
44
30
11
9
9
2
9
20
4
-39
-74
-76
-67
-81
-118
-125
-106
-97
-102
-136
-102
171
549
828
816
187
-579
-575
-201
-178
-201
-90
-74
-97
-57
-27
-25
-13
2
9
11
20
44
67
83
111
139
171
201
218
227
238
238
227
206
153
97
62
25
-11
-37
-53
-60
-60
-60
-53
-41
-39
-30
-18
-13
-6
-9
-11
-2
-11
-41
-51
-69
-99
-90
-71
-78
-85
-90
-99
-95
-83
-92
-111
-120
-125
-132
-132
-129
-136
-141
-134
-127
-127
-129
-129
-132
-132
-132
-139
-139
-136
-136
-129
-118
-113
-106
-90
-71
-57
-30
-4
-4
-20
-25
-13
-2
9
16
16
23
37
25
67
315
684
981
1032
498
-322
-480
-122
-41
-85
6
13
-39
-9
30
32
51
69
48
18
37
78
97
111
109
99
127
176
199
213
220
213
213
213
204
178
132
83
37
-4
-30
-46
-60
-64
-64
-67
-67
-71
-81
-71
-53
-44
-37
-32
-32
-27
-16
-9
-2
-2
-9
-4
6
11
11
11
4
9
25
34
23
2
2
18
30
32
18
-6
-9
6
16
25
30
30
30
41
51
62
69
64
64
69
71
71
78
88
95
99
115
134
113
57
20
18
25
34
41
41
44
46
32
46
231
577
897
1013
579
-257
-542
-187
-53
-120
-23
39
-4
11
46
30
27
46
51
46
46
51
48
39
51
78
95
113
141
153
134
109
102
97
81
51
6
-39
-78
-111
-134
-153
-160
-157
-162
-157
-146
-141
-134
-118
-106
-95
-83
-81
-85
-90
-78
-62
-74
-111
-111
-88
-85
-85
-71
-64
-53
-41
-34
-30
-18
-9
2
11
11
23
39
39
39
48
53
55
67
76
85
90
78
62
62
69
71
76
78
85
95
95
85
90
99
92
78
74
78
90
97
97
102
99
83
60
160
507
923
1136
916
106
-572
-398
-78
-143
-132
-6
-20
-46
2
16
9
34
41
6
-4
25
60
81
95
111
143
183
215
238
250
248
248
252
245
222
176
118
78
53
18
-25
-48
-51
-46
-39
-32
-27
-20
-9
0
-6
-13
-2
2
-2
9
30
37
34
30
30
39
48
51
46
44
46
55
64
71
71
55
39
46
60
64
44
-4
-20
4
20
27
39
32
32
69
90
78
62
48
37
53
74
76
46
13
4
13
164
577
1001
1099
679
-190
-684
-389
-153
-238
-171
-46
-69
-81
-44
-41
-39
-18
-20
-30
-18
0
23
57
90
115
141
171
208
241
257
255
245
236
222
187
129
62
6
-32
-57
-67
-71
-78
-81
-74
-62
-48
-27
-13
-4
6
23
37
41
41
46
51
53
60
62
55
57
57
60
57
34
0
-2
6
-4
-13
-6
-4
-9
-6
-2
4
16
23
27
37
60
67
41
13
16
23
23
30
34
39
39
23
32
224
621
978
1087
686
-169
-561
-231
-53
-141
-57
41
2
-11
32
53
51
60
69
69
76
83
85
85
97
122
157
187
206
220
229
229
220
208
180
129
74
27
-20
-74
-109
-134
-173
-187
-166
-155
-150
-136
-125
-109
-85
-69
-60
-51
-51
-62
-57
-41
-41
-46
-32
-20
-27
-30
-32
-62
-90
-76
-53
-55
-55
-55
-53
-41
-32
-32
-39
-41
-34
-18
0
4
6
18
34
37
25
16
9
4
9
23
32
34
18
-11
60
364
751
1018
957
282
-489
-491
-141
-132
-164
-57
-39
-64
-32
-16
-34
-27
-9
4
18
32
32
34
41
60
99
122
111
120
160
169
153
141
122
85
37
-20
-76
-136
-180
-187
-180
-180
-178
-178
-173
-160
-139
-125
-111
-99
-90
-78
-62
-48
-37
-30
-27
-18
-6
0
4
2
0
9
18
25
27
25
20
13
13
23
30
27
27
37
48
53
55
55
53
53
57
64
71
81
85
78
71
78
83
67
48
53
67
64
37
16
20
32
18
2
139
466
797
974
663
-157
-577
-264
-57
-129
-55
25
-11
-4
37
41
48
71
78
85
104
120
139
157
176
204
236
264
292
308
310
301
280
269
257
218
164
115
62
16
-9
-25
-41
-53
-64
-76
-88
-95
-88
-81
-78
-88
-127
-166
-153
-127
-127
-118
-104
-102
-92
-81
-81
-97
-134
-155
-136
-120
-120
-115
-132
-153
-136
-111
-109
-99
-88
-78
-64
-53
-46
-37
-30
-20
-6
4
9
11
16
27
39
46
48
51
46
34
25
27
37
48
60
67
85
106
109
97
88
85
90
99
102
99
102
109
97
97
255
593
920
1104
844
32
-475
-208
18
-57
-6
69
18
9
57
64
67
88
71
34
41
64
71
88
102
106
125
155
171
176
180
178
171
171
164
136
83
27
-6
-30
-55
-78
-95
-109
-111
-102
-88
-83
-81
-69
-51
-37
-27
-18
-18
-16
2
16
18
16
11
11
18
30
37
34
23
16
4
0
4
-4
-9
6
16
9
2
0
2
11
23
30
37
39
34
44
55
60
64
62
53
57
74
78
57
20
4
18
27
32
46
53
53
69
90
97
88
64
44
48
71
78
74
71
64
39
88
385
811
1073
976
289
-528
-575
-211
-192
-229
-102
-69
-104
-74
-46
-55
-46
-41
-57
-53
-20
0
6
27
57
81
109
148
178
199
215
218
211
206
185
150
104
55
13
-23
-48
-55
-57
-64
-67
-64
-48
-44
-71
-83
-57
-44
-39
-18
-6
-16
-18
-4
6
-9
-46
-51
-30
-34
-34
-23
-20
-16
-2
0
-2
-2
6
16
18
13
23
34
34
34
39
46
41
23
13
32
32
16
32
55
46
37
41
39
34
30
25
34
44
30
-4
51
380
841
1076
879
125
-612
-531
-153
-155
-173
-41
-23
-55
-16
16
4
6
23
32
48
74
81
62
60
104
150
178
206
238
259
266
278
276
248
201
148
95
48
6
-39
-67
-64
-55
-55
-60
-67
-74
-81
-85
-85
-74
-62
-51
-34
-18
-4
4
4
2
9
18
23
25
25
23
25
32
41
41
32
32
48
57
57
60
53
55
69
74
69
55
34
30
57
74
69
67
48
25
27
32
25
18
13
20
37
39
13
-51
-48
224
642
916
892
280
-556
-647
-257
-201
-252
-148
-129
-190
-185
-157
-153
-148
-139
-120
-99
-81
-62
-48
-27
0
37
71
102
122
139
148
155
153
136
99
48
-4
-51
-88
-118
-136
-141
-136
-125
-129
-146
-143
-115
-97
-76
-51
-37
-34
-20
-2
13
20
23
27
32
39
53
57
51
51
57
60
62
44
11
4
20
25
32
37
37
37
27
2
-16
-13
-11
-11
-4
6
25
39
44
57
81
85
78
67
62
71
78
83
88
88
92
88
78
213
540
876
1090
902
118
-461
-255
2
-53
-18
60
23
18
57
53
39
41
39
32
39
62
76
85
106
129
155
190
220
238
248
248
243
243
224
176
106
18
-55
-95
-122
-148
-171
-190
-176
-153
-146
-141
-129
-118
-102
-81
-67
-57
-48
-39
-25
-9
-2
4
4
9
20
23
23
13
-18
-37
-20
-9
-16
-27
-39
-39
-32
-13
2
-4
-18
-13
2
11
11
11
9
16
37
48
46
32
20
18
23
30
41
41
37
55
78
76
60
39
20
11
6
13
9
-37
-97
-125
-106
67
403
735
930
651
-169
-628
-338
-136
-215
-146
-55
-78
-71
-37
-32
-30
-13
0
6
9
9
25
41
46
53
71
106
141
171
192
194
183
178
171
143
97
37
-20
-53
-64
-76
-83
-88
-85
-74
-64
-51
-46
-48
-46
-30
-11
6
18
11
-6
-6
6
20
25
25
25
20
2
-2
6
6
2
11
27
30
6
-25
-25
-6
4
6
-18
-46
-41
-20
-6
0
4
9
18
23
20
13
13
18
20
27
46
57
60
51
53
69
74
67
67
78
90
97
113
132
127
118
113
113
111
113
115
118
120
120
97
67
201
598
1018
1171
825
-48
-607
-350
-109
-204
-166
-69
-92
-88
-44
-48
-48
-20
-9
-2
18
39
32
13
32
85
115
136
148
148
169
201
187
155
143
125
76
27
-13
-60
-92
-97
-99
-115
-120
-99
-88
-88
-69
-51
-41
-32
-20
-6
11
25
32
27
23
30
44
53
55
51
44
41
46
46
41
41
44
46
62
74
44
4
6
25
32
44
48
34
37
53
55
55
55
57
71
85
90
102
115
106
92
88
81
64
39
-4
-25
-4
4
-25
-27
197
658
1020
994
405
-454
-674
-278
-141
-201
-92
-32
-81
-53
-2
-4
2
23
30
41
69
97
122
129
136
173
222
262
294
315
329
340
343
327
287
208
111
44
9
-25
-64
-85
-85
-78
-74
-71
-74
-71
-57
-37
-23
-4
9
9
18
23
16
18
27
23
20
32
41
39
32
32
34
41
41
25
-4
-23
-13
2
11
13
9
6
13
20
23
25
18
23
39
51
64
81
69
51
44
44
46
51
53
51
41
27
6
-41
37
378
758
943
709
-99
-716
-505
-204
-250
-220
-113
-125
-134
-90
-74
-69
-53
-41
-41
-30
-6
6
25
62
92
125
171
213
238
259
271
276
269
241
190
132
67
9
-37
-90
-129
-125
-115
-118
-109
-104
-104
-90
-76
-64
-53
-48
-41
-23
-11
-2
6
11
20
27
30
32
37
37
39
32
4
-9
0
4
6
18
20
20
27
30
34
46
48
48
48
53
53
37
20
23
25
32
57
69
62
76
95
92
88
78
69
71
78
81
85
92
92
67
64
238
582
904
1092
781
-109
-614
-317
-113
-222
-176
-92
-120
-113
-71
-74
-78
-57
-41
-30
-9
4
16
39
71
104
129
141
150
180
211
222
224
213
178
136
88
32
-13
-57
-88
-97
-109
-113
-99
-97
-99
-85
-64
-53
-51
-51
-39
-23
-9
2
11
9
11
25
37
44
46
41
39
48
55
62
62
53
51
60
69
67
51
27
27
37
41
48
30
-11
-16
6
9
4
-13
-53
-53
-27
-23
-27
-44
-69
-69
-51
-39
-25
-16
-23
-13
13
25
16
-4
-23
-30
-27
-18
-13
-18
-20
-25
-41
46
327
665
950
948
303
-463
-480
-157
-162
-194
-104
-111
-148
-129
-125
-127
-109
-95
-92
-83
-64
-48
-27
-13
-2
25
67
109
146
169
183
192
192
180
157
115
53
-4
-46
-76
-85
-88
-97
-118
-118
-99
-88
-106
-134
-127
-106
-92
-76
-67
-67
-67
-64
-51
-37
-30
-25
-13
-4
2
9
13
16
25
32
37
44
48
48
51
57
64
69
71
78
83
81
88
95
90
92
104
104
90
76
78
88
90
85
88
95
97
97
104
106
102
99
99
104
109
106
113
118
113
111
99
78
44
-6
-34
-20
-16
-32
-39
-48
-76
-109
-60
199
605
941
1008
470
-394
-596
-224
-143
-206
-88
-44
-92
-67
-27
-18
0
25
30
30
46
74
95
109
120
120
132
178
218
224
220
224
229
222
206
176
111
41
-4
-34
-60
-81
-97
-102
-90
-81
-78
-69
-69
-71
-57
-44
-51
-74
-83
-71
-55
-46
-41
-37
-39
-53
-57
-44
-39
-60
-92
-106
-95
-85
-81
-85
-118
-136
-120
-102
-97
-99
-109
-106
-90
-76
-71
-64
-55
-44
-34
-23
-9
-27
-51
-37
-25
-34
-44
-44
-48
-41
-27
-30
-44
-53
-57
-48
-27
-16
-11
-11
-16
-20
81
447
916
1131
879
90
-568
-433
-134
-171
-143
-13
-18
-34
23
37
9
34
69
76
85
104
120
150
185
211
222
227
257
299
331
350
350
333
317
282
222
153
90
34
-6
-23
-23
-34
-41
-37
-34
-34
-34
-32
-25
-16
-9
4
23
32
39
55
55
51
67
78
69
64
71
71
71
74
71
76
71
69
71
46
23
37
46
39
53
57
41
34
41
41
41
37
41
46
51
57
57
39
11
-6
-11
-13
-32
-69
-81
-62
-64
-99
-51
250
686
960
832
118
-619
-561
-192
-197
-229
-104
-78
-109
-67
-37
-39
-16
6
13
34
62
78
95
125
157
194
236
273
301
322
340
352
343
320
278
201
106
32
-11
-41
-67
-85
-88
-76
-67
-71
-71
-57
-39
-27
-16
-4
2
9
23
39
46
48
48
48
57
69
71
55
23
0
6
16
18
18
13
13
23
13
9
13
9
9
23
34
34
25
16
18
30
44
62
64
55
76
102
99
88
74
64
74
76
62
57
57
41
-4
-9
215
589
876
960
519
-324
-603
-250
-136
-211
-109
-44
-81
-62
-34
-39
-20
6
16
20
32
53
78
102
129
160
183
220
262
292
306
306
294
276
238
178
118
57
-4
-41
-48
-57
-78
-111
-129
-111
-92
-90
-81
-76
-71
-53
-34
-23
-18
-16
-9
2
13
23
27
25
23
25
9
-13
-20
-20
-18
-11
-2
4
9
9
11
18
23
13
-16
-41
-32
-16
-11
-4
-2
-2
0
2
2
0
-2
11
30
37
41
57
69
53
20
2
6
9
9
11
13
13
13
-13
27
278
626
918
1001
463
-405
-586
-227
-157
-224
-136
-118
-164
-150
-136
-150
-146
-129
-125
-118
-113
-122
-118
-85
-55
-27
16
57
90
120
146
155
160
155
127
85
34
-20
-64
-92
-111
-118
-111
-106
-102
-92
-81
-69
-57
-46
-34
-27
-27
-27
-25
-18
-6
-2
4
18
30
30
32
37
44
53
60
57
53
57
67
74
74
71
51
23
20
39
41
39
44
48
53
62
64
53
39
25
13
25
41
39
27
27
37
48
51
60
76
81
88
113
125
109
88
85
92
102
109
104
102
109
102
99
250
579
916
1127
883
55
-491
-259
-34
-111
-78
-6
-44
-60
-30
-20
-11
9
16
9
20
46
67
92
115
125
150
197
234
259
278
278
271
273
262
218
134
34
-51
-115
-148
-155
-185
-229
-222
-185
-169
-160
-150
-143
-129
-111
-90
-74
-71
-69
-53
-32
-18
-13
-16
-16
-4
9
13
16
6
-11
-16
-2
4
9
16
16
18
30
37
39
41
41
41
53
69
74
64
67
69
74
78
74
69
76
85
85
88
92
95
104
118
111
92
78
62
44
25
9
-6
-32
-48
-62
-78
37
429
876
1050
744
-81
-688
-480
-185
-236
-204
-78
-81
-99
-55
-34
-37
-20
0
16
27
34
46
74
106
139
169
199
234
271
294
294
294
299
285
241
185
122
60
13
-23
-51
-60
-62
-62
-57
-53
-46
-37
-32
-18
-2
-6
-16
-6
2
9
9
-9
-25
-18
-11
-9
-2
0
-9
-37
-64
-55
-41
-46
-39
-30
-25
-16
-6
-4
-2
-2
4
13
13
6
16
23
23
34
46
57
69
64
51
51
55
53
53
57
57
53
46
20
27
250
656
974
997
468
-380
-609
-234
-113
-185
-104
-81
-139
-111
-76
-95
-92
-74
-62
-37
-11
-4
-13
-4
34
78
115
155
190
208
227
245
245
231
197
139
81
30
-16
-60
-113
-157
-150
-125
-118
-113
-113
-120
-111
-85
-67
-57
-55
-46
-25
-9
0
6
2
2
18
27
32
34
27
23
34
44
44
44
37
39
53
62
62
60
55
57
55
39
32
34
30
37
60
74
81
78
60
48
51
48
46
48
48
53
64
74
69
46
125
419
772
1022
969
301
-440
-401
-55
-62
-104
-30
-46
-74
-32
-18
-51
-76
-69
-51
-37
-18
0
13
37
69
104
141
171
197
218
234
243
238
213
173
122
64
16
-25
-57
-74
-90
-104
-102
-90
-90
-85
-69
-60
-48
-32
-34
-55
-55
-34
-20
-18
-9
-2
-2
4
18
18
16
20
25
30
37
37
34
37
41
44
46
37
34
46
46
41
41
39
37
44
57
67
57
37
34
46
34
16
16
20
18
23
30
30
11
-34
-41
120
452
790
997
763
-41
-591
-354
-95
-155
-115
-23
-44
-48
-9
-4
-9
-11
-32
-44
-25
-13
-9
4
16
23
44
71
99
127
143
141
132
118
99
60
-2
-78
-153
-201
-218
-222
-234
-241
-234
-222
-213
-201
-192
-180
-169
-155
-139
-118
-104
-111
-136
-143
-118
-95
-95
-92
-83
-74
-60
-44
-34
-37
-39
-34
-34
-34
-25
-16
-13
-9
2
16
18
16
18
32
23
-2
-4
4
4
20
41
57
78
76
62
67
71
71
76
78
76
88
99
88
55
136
484
911
1138
955
192
-505
-361
-13
-46
-39
83
67
34
88
104
97
111
118
127
148
164
180
199
213
229
252
278
303
301
269
248
241
227
194
148
88
23
-30
-67
-104
-139
-155
-150
-141
-153
-178
-180
-164
-150
-134
-109
-95
-90
-81
-64
-48
-34
-27
-30
-32
-25
-13
-16
-30
-34
-30
-23
-4
0
-9
-9
6
11
6
-4
-30
-53
-37
-11
-4
13
39
37
18
11
13
23
37
41
41
55
64
48
51
236
677
1090
1127
568
-352
-691
-299
-104
-173
-76
16
-13
-2
37
44
51
51
48
62
88
106
127
155
185
213
252
296
322
347
375
378
350
313
266
206
132
53
-18
-67
-111
-136
-141
-146
-150
-146
-143
-139
-122
-106
-102
-102
-88
-64
-55
-48
-37
-39
-34
-18
-13
-16
-18
-23
-30
-27
-30
-32
-34
-27
-16
-13
-11
-6
0
2
4
25
57
60
27
-20
-51
-57
-53
-46
-46
-44
-20
-6
-30
11
308
779
1078
967
280
-521
-570
-180
-118
-143
-16
11
-27
9
46
48
62
74
76
92
120
143
164
180
197
236
285
317
340
361
366
366
368
345
292
229
150
74
25
2
-23
-55
-71
-69
-67
-67
-76
-92
-102
-102
-88
-69
-69
-76
-67
-51
-55
-78
-92
-92
-85
-76
-69
-64
-81
-113
-120
-104
-109
-122
-122
-120
-122
-113
-99
-88
-97
-127
-115
-71
-60
-69
-83
-88
-71
-53
-44
-39
-39
-39
-44
-55
51
396
797
1013
839
95
-568
-433
-118
-162
-153
-25
-27
-57
-25
-11
-16
4
23
25
25
39
60
81
104
127
148
173
208
238
250
231
206
201
180
132
74
13
-48
-95
-122
-141
-157
-183
-199
-180
-160
-150
-136
-132
-139
-136
-113
-92
-92
-99
-97
-97
-99
-92
-85
-85
-81
-76
-71
-62
-60
-62
-55
-48
-44
-34
-30
-39
-39
-25
-18
-13
-9
-6
-4
-4
-2
4
18
34
44
48
69
88
76
64
64
64
69
81
78
55
51
62
48
48
206
535
860
1050
800
6
-503
-250
0
-67
-34
27
-25
-23
30
30
25
51
64
74
92
109
122
141
162
192
224
255
282
306
320
329
331
320
292
236
171
118
74
30
-4
-23
-18
-9
-6
-6
-2
0
9
18
20
13
4
4
11
16
6
-4
-16
-30
-51
-64
-67
-81
-120
-136
-127
-132
-139
-132
-127
-125
-111
-97
-90
-90
-90
-81
-67
-60
-60
-78
-111
-106
-83
-74
-71
-71
-71
-57
-44
-39
-39
-39
-39
-30
-20
-13
-18
-32
-39
-30
-25
-27
-27
-32
-27
-9
-2
6
20
18
4
-2
-4
-2
0
-4
-4
9
20
11
-11
64
347
702
990
988
350
-426
-452
-115
-109
-139
-37
-30
-51
-2
25
23
32
44
57
81
102
109
111
122
153
183
201
218
231
236
236
243
241
213
150
85
41
-2
-57
-111
-143
-155
-148
-139
-132
-122
-115
-106
-88
-71
-62
-55
-51
-41
-30
-13
-4
-2
2
6
16
27
37
39
37
39
39
20
4
9
13
-4
-9
9
20
16
18
27
37
51
53
51
57
64
69
74
81
81
83
85
90
99
99
97
104
106
109
113
111
109
113
113
106
90
74
81
102
106
106
111
90
67
60
44
25
30
30
25
23
16
-2
-34
-2
234
603
920
1013
496
-387
-607
-229
-141
-224
-139
-113
-162
-136
-102
-102
-92
-74
-51
-27
-16
-4
18
48
76
102
134
166
194
218
238
250
248
234
208
171
120
53
-9
-53
-85
-102
-102
-111
-129
-141
-141
-129
-118
-113
-115
-113
-97
-85
-78
-62
-62
-97
-115
-90
-74
-71
-62
-57
-53
-32
-18
-23
-18
-11
-6
4
16
27
27
20
11
0
2
16
13
13
20
16
13
30
32
11
4
13
4
-16
-20
-23
-23
-4
23
27
18
32
51
37
18
23
20
16
37
53
41
25
16
4
109
475
939
1180
950
143
-542
-391
-51
-81
-83
39
51
30
69
88
76
92
113
125
139
134
109
129
176
199
229
278
301
301
306
317
331
322
282
250
215
150
81
30
-11
-37
-41
-41
-48
-51
-51
-44
-27
-11
0
2
11
25
39
44
51
55
55
51
44
41
44
44
39
37
41
48
48
48
53
55
48
23
-18
-41
-37
-44
-60
-51
-48
-60
-51
-32
-27
-37
-53
-62
-55
-46
-39
-34
-41
-53
-64
-71
67
456
853
950
524
-350
-783
-447
-211
-278
-201
-92
-115
-120
-76
-62
-62
-46
-27
-18
-2
16
34
60
90
113
150
194
211
224
248
262
259
245
215
157
81
13
-32
-69
-102
-115
-113
-111
-102
-95
-88
-78
-69
-60
-41
-18
-2
-2
4
18
30
37
55
62
53
41
46
55
51
39
25
20
27
30
25
6
-20
-30
-13
2
11
23
39
48
53
55
41
27
34
55
71
76
74
64
41
95
391
809
1080
1018
366
-422
-456
-90
-71
-122
-6
18
-16
9
16
-9
-6
11
18
27
37
44
67
97
125
157
190
218
250
282
299
299
287
252
201
146
85
30
-27
-83
-113
-109
-102
-115
-150
-171
-150
-120
-109
-102
-99
-85
-62
-48
-32
-20
-23
-16
2
11
13
20
13
11
16
6
4
11
4
4
11
11
6
-18
-53
-41
-6
-2
4
25
27
23
23
18
18
23
23
25
37
46
44
16
51
317
716
1013
1039
459
-387
-517
-136
-69
-125
-27
-9
-71
-57
-25
-27
-27
-16
-6
9
30
39
46
64
90
118
155
185
206
224
236
236
227
185
118
53
-18
-83
-127
-169
-194
-197
-192
-192
-197
-208
-215
-208
-192
-176
-164
-155
-150
-139
-122
-109
-102
-97
-88
-76
-64
-51
-44
-46
-44
-39
-30
-25
-27
-27
-16
-6
-2
2
9
20
27
20
-2
-20
-18
-9
-2
16
32
37
51
74
81
64
55
60
62
67
76
81
85
92
76
62
180
487
832
1057
851
60
-526
-327
-46
-95
-69
32
18
2
39
48
48
71
90
95
104
120
139
162
190
213
238
266
301
333
350
350
331
313
294
259
199
136
81
34
9
0
-9
-30
-60
-64
-44
-32
-27
-20
-25
-34
-27
-16
-13
-25
-39
-41
-39
-44
-46
-48
-57
-67
-76
-78
-76
-92
-129
-139
-118
-109
-109
-127
-157
-155
-129
-120
-120
-141
-178
-176
-146
-132
-129
-125
-120
-111
-97
-85
-78
-81
-78
-69
-60
-60
-71
-90
-76
-51
-46
-41
-18
-13
-25
-30
-30
-30
-34
-57
-69
-51
-37
-44
-69
-20
227
593
909
981
436
-382
-507
-132
-64
-122
-27
-4
-46
-16
20
18
25
44
60
78
104
122
129
143
178
215
248
282
308
320
329
329
324
301
236
153
97
48
-16
-67
-97
-115
-118
-113
-125
-134
-127
-120
-111
-90
-74
-69
-67
-60
-46
-30
-20
-20
-27
-39
-46
-32
-23
-27
-23
-13
-4
4
13
16
16
18
30
41
48
46
32
23
34
44
34
32
44
53
62
76
76
64
71
83
81
85
97
99
99
102
99
102
102
102
102
109
120
120
97
81
97
95
60
39
41
48
57
57
64
78
69
60
199
591
1022
1217
913
48
-556
-343
-92
-173
-146
-51
-78
-92
-55
-78
-115
-88
-57
-60
-39
-6
2
16
48
83
113
146
178
215
243
250
257
259
250
222
171
104
44
-2
-32
-46
-55
-64
-69
-74
-64
-44
-32
-32
-25
-11
4
20
16
-2
-30
-48
-37
-16
-9
-6
-9
-9
2
16
20
13
6
18
34
34
23
4
-6
-2
9
18
25
23
25
34
37
41
53
55
46
41
57
88
97
81
60
60
69
74
76
64
51
55
60
41
69
347
821
1108
957
245
-535
-558
-176
-132
-157
-32
0
-39
-9
20
6
2
20
32
44
67
95
118
134
153
190
245
280
306
336
345
340
347
336
289
213
111
30
-9
-41
-76
-113
-148
-150
-132
-120
-111
-111
-120
-106
-76
-55
-46
-39
-32
-25
-11
6
13
4
2
16
25
27
25
25
25
27
37
41
37
32
34
44
51
57
57
55
46
32
20
30
46
46
44
64
90
85
67
60
62
60
64
71
67
46
34
23
27
204
565
888
971
512
-361
-728
-419
-252
-308
-220
-141
-176
-173
-129
-115
-109
-88
-71
-62
-41
-18
6
34
62
90
129
171
211
245
262
269
273
264
231
183
118
55
0
-41
-60
-67
-74
-71
-74
-88
-83
-71
-71
-60
-41
-32
-23
-9
-2
6
23
27
30
37
39
46
55
53
51
51
51
51
37
11
6
16
13
23
32
30
23
18
23
34
37
30
11
-18
-34
-9
13
16
18
39
51
51
41
32
27
37
46
53
57
64
55
34
78
327
693
990
1055
545
-287
-489
-132
-48
-132
-39
11
-25
-18
-4
-25
-30
-13
-2
4
11
16
34
62
90
118
146
171
206
238
250
231
204
185
162
115
57
-6
-76
-125
-136
-136
-132
-134
-169
-197
-176
-150
-146
-136
-132
-125
-106
-83
-67
-62
-62
-53
-34
-20
-11
-6
-11
-6
6
13
18
20
13
6
4
4
13
16
9
13
25
30
27
4
-30
-25
-4
0
4
4
-6
-4
11
20
34
44
39
53
81
88
71
34
13
23
37
37
27
18
20
20
11
113
408
742
997
941
262
-438
-361
-34
-53
-67
37
34
-13
-13
-2
6
23
37
39
34
44
62
83
97
104
115
132
150
183
208
211
211
211
197
164
109
41
-16
-64
-95
-106
-113
-118
-113
-106
-102
-88
-76
-71
-64
-57
-48
-32
-23
-32
-51
-48
-39
-41
-51
-46
-32
-27
-23
-11
-11
-9
-2
0
2
6
11
13
20
23
30
37
34
34
44
44
41
34
6
-2
11
16
16
23
18
9
6
9
9
9
11
18
32
44
53
60
74
90
88
74
62
57
60
71
76
76
81
76
55
106
361
721
1018
1080
549
-289
-487
-162
-99
-166
-76
-48
-88
-71
-62
-76
-60
-37
-32
-25
-13
-2
20
48
74
102
132
166
201
229
248
252
245
238
222
180
122
62
0
-64
-99
-104
-109
-136
-171
-178
-157
-141
-132
-141
-169
-166
-139
-122
-115
-113
-111
-95
-81
-71
-62
-64
-67
-53
-44
-44
-44
-46
-46
-39
-37
-44
-62
-81
-81
-69
-62
-57
-57
-67
-62
-48
-39
-34
-44
-53
-51
-46
-44
-39
-39
-51
-48
-37
-23
-11
-4
-11
-9
23
53
53
39
20
9
13
13
11
9
4
-6
-25
13
282
735
1055
994
354
-473
-609
-269
-220
-257
-129
-78
-106
-83
-57
-51
-27
-4
4
13
30
53
69
88
106
113
129
176
227
257
276
289
294
285
264
220
155
88
37
6
-13
-34
-51
-60
-60
-48
-37
-30
-23
-11
0
11
25
41
44
34
34
46
60
62
55
60
62
60
67
69
62
64
74
71
71
71
71
71
78
83
78
51
16
13
27
30
39
55
57
69
76
55
41
39
13
-11
-2
18
13
6
6
-6
-6
183
621
994
1022
521
-345
-684
-324
-148
-215
-125
-51
-88
-97
-95
-97
-78
-60
-44
-27
-18
-6
23
53
83
115
150
190
231
266
285
292
292
287
262
211
141
67
11
-20
-48
-69
-74
-76
-76
-62
-51
-53
-69
-90
-85
-69
-69
-67
-55
-44
-41
-55
-55
-44
-51
-48
-27
-16
-13
-16
-18
-11
2
11
18
16
16
20
27
37
44
37
23
27
51
71
71
67
74
83
85
78
71
64
64
71
78
88
92
81
55
122
422
821
1083
1025
373
-398
-419
-64
-46
-85
16
23
-18
9
16
-6
4
16
0
4
25
32
44
76
97
99
102
104
122
160
183
190
187
166
127
78
23
-30
-83
-125
-134
-127
-122
-118
-120
-122
-104
-85
-74
-69
-71
-71
-53
-34
-20
-13
-11
-9
2
13
23
25
20
18
25
34
41
41
39
37
39
48
55
55
55
57
55
55
62
62
57
57
55
57
78
95
83
71
64
57
37
18
23
32
37
46
25
-11
127
477
811
990
702
-153
-656
-352
-109
-178
-118
-34
-64
-60
-16
-16
-27
-16
-2
6
25
48
60
64
74
95
125
157
178
190
199
192
178
169
141
85
23
-41
-102
-143
-169
-185
-192
-197
-192
-185
-185
-190
-199
-199
-183
-169
-166
-160
-164
-169
-134
-118
-141
-132
-106
-104
-95
-76
-71
-60
-44
-41
-37
-34
-34
-25
-11
-9
-18
-41
-60
-39
-20
-27
-37
-39
-30
-13
-2
4
6
9
11
20
30
32
37
51
62
71
90
113
115
97
81
81
95
102
99
104
115
118
104
106
264
593
913
1090
816
-4
-494
-215
11
-60
-11
55
13
2
25
30
48
62
57
71
104
120
127
148
166
187
224
252
271
285
289
292
287
259
206
132
53
-4
-53
-95
-125
-155
-173
-166
-150
-146
-139
-139
-136
-122
-102
-85
-74
-74
-62
-41
-25
-16
-11
-13
-11
2
11
20
20
9
-2
0
6
13
13
13
16
20
27
27
2
-34
-46
-51
-48
-32
-34
-48
-37
-13
-13
-16
2
6
-4
9
39
44
37
39
39
25
4
0
13
20
27
60
90
88
60
51
64
69
57
34
4
0
6
-6
16
231
600
925
1039
600
-236
-519
-166
-34
-106
-16
48
16
9
16
9
13
20
23
25
39
57
78
97
115
141
166
178
190
215
236
238
238
234
222
187
132
74
25
-11
-34
-51
-60
-57
-57
-64
-69
-62
-51
-44
-34
-18
-9
-2
6
18
25
25
25
30
39
48
39
37
37
9
-11
6
20
16
16
18
25
34
37
41
48
44
34
39
44
48
53
55
60
60
57
53
51
53
57
53
39
16
0
2
13
11
0
2
25
46
51
57
76
85
64
30
25
25
6
-18
-30
-32
-37
-57
-62
106
505
899
1050
674
-194
-633
-306
-90
-162
-88
-9
-60
-57
0
13
11
16
-4
-20
-2
25
44
67
92
111
129
155
187
201
183
173
192
201
183
155
106
44
-13
-53
-83
-122
-155
-153
-134
-129
-120
-106
-97
-88
-71
-51
-34
-27
-20
0
6
0
4
9
4
9
23
32
32
25
23
20
16
30
41
30
25
32
34
37
39
34
37
51
55
51
55
51
39
44
55
60
53
32
34
55
57
32
-18
-78
-90
-67
-69
-62
-48
-53
-64
-76
11
380
867
1087
795
-30
-698
-547
-211
-229
-213
-76
-64
-88
-53
-39
-46
-34
-16
-2
11
30
60
90
118
148
178
220
278
329
350
345
350
361
347
306
245
169
81
20
-2
-9
-20
-37
-53
-51
-37
-48
-48
-20
-4
-6
4
27
41
41
44
51
57
64
64
62
64
64
64
62
39
0
-13
-25
-39
-30
-25
-34
-25
-9
-11
-16
-25
-27
-16
-18
-23
-2
13
13
27
53
62
51
39
37
34
32
30
25
18
11
-18
-46
78
436
814
1006
781
-16
-651
-484
-201
-238
-206
-92
-99
-118
-78
-53
-48
-34
-16
-9
4
32
55
74
102
132
164
208
248
278
296
303
306
303
273
197
97
9
-53
-92
-120
-139
-146
-148
-146
-146
-146
-136
-125
-115
-99
-78
-60
-53
-51
-34
-18
-2
9
9
6
11
16
23
30
30
25
30
39
46
46
46
44
46
57
67
62
44
32
41
53
57
55
46
37
44
57
71
83
81
78
104
122
113
99
85
76
81
81
69
74
74
55
39
127
417
779
1039
1001
354
-424
-445
-111
-136
-185
-67
-60
-102
-81
-78
-85
-62
-44
-37
-27
-20
-6
23
53
81
106
132
166
206
234
252
255
243
231
208
153
74
-2
-55
-85
-97
-99
-99
-102
-99
-88
-74
-60
-55
-51
-46
-34
-20
-6
0
0
2
13
25
32
37
23
-2
-4
9
4
-11
-18
-37
-51
-37
-20
-30
-34
-27
-20
-11
-9
-39
-67
-55
-34
-30
-39
-57
-60
-46
-39
-30
-32
-64
-81
-69
-64
-62
-71
-90
-81
-60
-62
-60
-51
-60
-71
-71
-60
-48
-51
-53
-48
-41
-39
-57
-16
231
603
925
1018
503
-333
-514
-155
-83
-160
-76
-44
-83
-85
-95
-106
-104
-113
-125
-122
-111
-95
-76
-55
-25
6
37
71
109
136
160
173
178
169
129
60
4
-37
-88
-125
-146
-155
-148
-134
-125
-120
-109
-92
-74
-64
-71
-76
-64
-51
-34
-13
-6
-9
0
11
23
32
37
39
41
46
55
64
67
62
62
67
78
85
83
78
81
90
95
76
51
53
57
46
51
69
67
57
62
74
83
88
81
71
81
99
111
111
102
99
104
109
109
109
88
60
60
71
85
102
95
64
48
53
44
25
20
23
20
16
-6
2
234
658
1006
1059
526
-345
-579
-208
-99
-164
-57
-13
-64
-37
4
-2
16
41
44
51
78
95
92
85
83
102
150
199
238
266
276
280
294
289
259
197
113
53
13
-30
-64
-88
-104
-99
-85
-85
-88
-76
-64
-62
-51
-27
-27
-30
-20
-13
-23
-30
-27
-23
-25
-25
-18
-11
-39
-81
-90
-67
-55
-60
-60
-64
-67
-57
-51
-55
-53
-48
-51
-53
-51
-44
-41
-46
-51
-53
-53
-53
-67
-78
-62
-51
-53
-37
-23
-32
-51
-60
-64
-71
-71
-67
-64
-57
-53
-71
-37
252
749
1080
983
299
-528
-612
-220
-150
-185
-55
-9
-48
-25
9
13
18
30
46
64
92
125
143
160
192
231
269
299
306
308
333
350
347
329
264
180
122
60
-4
-41
-67
-78
-71
-69
-74
-76
-92
-109
-104
-90
-78
-62
-44
-23
-9
0
6
18
30
39
41
48
51
44
46
60
64
62
64
64
62
69
81
81
78
81
88
88
71
62
62
60
57
67
78
90
92
90
102
115
109
90
67
46
41
41
27
6
-20
-51
-64
-51
127
507
841
953
603
-229
-670
-368
-164
-238
-169
-99
-150
-160
-150
-150
-120
-92
-88
-83
-60
-25
6
34
64
92
120
166
218
248
259
257
245
238
227
185
118
41
-18
-60
-97
-122
-125
-125
-120
-104
-90
-78
-74
-74
-67
-51
-41
-30
-23
-25
-23
-9
-2
2
2
-4
0
11
11
16
16
9
13
27
34
23
-16
-51
-41
-16
-27
-51
-53
-44
-32
-18
-6
-4
-4
-6
2
23
46
55
60
76
97
99
92
85
76
76
88
99
104
97
81
48
62
269
626
937
1039
575
-276
-545
-192
-71
-148
-53
4
-30
-9
20
13
23
48
62
74
88
102
118
143
173
201
229
264
299
329
345
338
324
313
287
236
173
102
25
-20
-39
-51
-55
-74
-102
-102
-81
-71
-64
-53
-44
-34
-23
-11
0
6
16
27
32
39
46
51
46
37
30
39
46
44
46
51
53
55
60
60
62
71
74
76
83
81
83
90
92
95
97
97
99
106
104
92
67
34
34
44
30
6
-16
-23
-6
6
20
34
25
-11
-37
-27
-20
-37
-64
-69
-46
-44
-69
-41
180
542
874
1022
593
-282
-596
-243
-115
-215
-146
-104
-160
-155
-125
-125
-125
-115
-106
-88
-69
-55
-48
-32
-2
30
62
104
136
160
180
199
206
208
190
146
92
44
-2
-46
-76
-92
-88
-81
-76
-83
-90
-83
-64
-51
-41
-32
-27
-23
-13
-20
-34
-27
-18
-18
-6
6
16
23
23
20
32
46
48
37
6
-9
6
18
20
23
18
6
9
18
32
34
30
34
46
53
62
67
62
62
71
83
92
92
85
85
97
109
109
104
102
106
111
113
113
106
102
115
129
115
99
102
99
88
81
67
51
44
34
25
27
16
-23
-60
34
378
809
1078
943
190
-540
-442
-104
-127
-136
-27
-34
-53
-2
23
18
23
25
34
57
69
53
46
74
109
139
176
215
248
271
285
301
310
299
266
213
150
97
30
-51
-97
-99
-99
-92
-88
-92
-92
-83
-78
-81
-74
-60
-51
-34
-20
-16
-13
-11
-2
6
16
25
11
-11
-6
0
-2
4
6
2
13
25
25
23
23
32
44
41
39
46
48
46
46
44
46
51
51
51
48
37
27
6
-37
-57
-51
-48
-55
-60
-46
-27
-25
-41
-57
-60
-51
-39
-27
-25
-23
-25
-37
-4
238
684
1034
1022
426
-419
-600
-218
-118
-180
-67
4
-27
-11
23
11
0
20
41
48
60
83
104
127
162
197
224
257
299
336
359
364
352
329
306
262
192
115
51
6
-20
-32
-37
-44
-51
-51
-39
-27
-25
-44
-69
-64
-37
-20
-16
-13
-11
2
16
25
30
27
23
30
27
11
11
13
6
11
23
25
27
23
20
27
39
46
41
30
20
4
-11
-6
-2
-23
-37
-30
-34
-46
-48
-62
-69
-57
-44
-27
-30
-46
-32
-4
-2
-11
-20
-34
-30
-13
-2
-6
-32
-69
-81
-34
204
603
925
988
510
-315
-565
-206
-88
-166
-69
-4
-34
-25
-27
-57
-44
-25
-23
0
20
27
48
83
113
143
173
208
252
287
306
315
315
306
266
197
125
64
4
-44
-69
-76
-76
-81
-81
-69
-55
-46
-46
-51
-44
-34
-23
-4
6
9
11
18
27
39
39
37
41
51
51
51
51
51
53
57
60
62
64
62
62
62
69
74
69
64
64
51
39
25
-11
-39
-30
-32
-48
-48
-60
-76
-78
-81
-81
-67
-51
-46
-41
-32
-39
-57
-69
-71
-71
-64
-53
-48
-48
-34
-25
-46
-25
185
545
869
997
568
-271
-563
-218
-74
-146
-67
-9
-44
-27
13
20
27
44
51
60
85
106
118
134
157
183
218
257
289
317
333
333
327
315
292
236
171
113
62
11
-23
-41
-48
-41
-32
-27
-34
-62
-88
-74
-51
-48
-57
-67
-67
-48
-30
-20
-20
-23
-16
0
9
4
-11
-20
-11
-6
-9
-4
-18
-53
-60
-34
-23
-25
-27
-25
-16
-2
6
11
9
11
20
27
37
44
37
30
44
57
57
57
46
25
11
6
0
-16
-30
-34
-27
-25
-23
-11
0
-6
-16
-25
-30
-30
-34
-30
-11
0
-4
-32
-25
171
547
895
1039
609
-289
-637
-273
-125
-231
-160
-90
-120
-92
-46
-46
-39
-18
-2
18
44
55
67
88
118
153
190
229
259
280
303
324
331
327
306
262
206
148
88
39
-4
-46
-64
-55
-53
-53
-46
-39
-34
-20
-6
-2
-2
2
11
25
37
34
34
41
51
53
57
60
44
16
6
18
27
20
18
20
16
11
-6
-44
-55
-39
-32
-30
-18
-13
-20
-18
0
13
11
0
-6
-9
-6
-4
-16
-37
-39
-39
-37
-27
-30
-30
-13
-4
-16
-25
-25
-27
-39
-37
-27
-23
-23
-32
-23
171
621
1046
1131
665
-213
-621
-289
-90
-173
-88
13
-23
-27
16
23
25
44
32
11
4
-4
13
51
64
74
106
153
204
245
266
276
257
224
215
192
120
39
-30
-83
-113
-132
-141
-146
-150
-148
-134
-127
-129
-125
-113
-102
-85
-71
-67
-67
-69
-67
-55
-48
-51
-55
-57
-53
-46
-46
-60
-64
-55
-55
-57
-51
-48
-53
-53
-41
-32
-25
-27
-27
-20
-11
-9
-18
-41
-44
-23
-27
-30
-16
-25
-55
-69
-67
-71
-76
-74
-74
-67
-57
-62
-76
34
403
825
994
672
-162
-705
-438
-153
-206
-150
-39
-67
-76
-20
0
4
27
30
25
51
83
104
122
139
169
215
259
301
338
357
368
380
380
357
299
222
150
90
41
9
-18
-39
-34
-20
-16
-16
-20
-41
-48
-39
-41
-37
-25
-20
-11
6
23
30
27
30
44
51
53
53
53
48
48
57
64
60
55
55
60
62
64
44
9
0
13
23
30
32
23
18
30
41
46
41
32
32
39
46
62
71
67
74
95
90
69
51
34
18
11
11
-16
-64
-76
-71
-85
16
340
712
953
823
81
-623
-533
-211
-227
-229
-115
-109
-127
-88
-64
-64
-44
-20
-13
0
23
41
60
88
113
148
190
224
255
285
301
313
317
303
264
206
129
64
20
-23
-57
-88
-118
-118
-99
-97
-90
-78
-76
-64
-51
-41
-34
-25
-18
-6
0
2
9
16
18
25
32
32
34
34
27
13
-4
-4
2
0
4
18
25
20
20
25
30
39
44
44
44
48
53
60
64
64
60
60
69
76
78
74
69
74
81
83
85
76
53
39
46
51
53
60
53
41
57
83
74
25
-32
-64
-62
-53
-53
-57
-62
-57
-62
-74
41
361
739
1022
913
155
-531
-417
-122
-169
-183
-102
-127
-155
-111
-83
-78
-57
-37
-32
-18
6
30
55
78
97
125
164
204
241
271
282
285
292
292
271
218
146
83
37
0
-34
-69
-88
-85
-71
-62
-55
-53
-53
-46
-27
-16
-23
-51
-74
-57
-30
-27
-34
-55
-83
-76
-55
-53
-60
-85
-106
-92
-71
-62
-62
-64
-67
-67
-69
-69
-88
-102
-85
-74
-71
-55
-44
-46
-39
-25
-13
-6
-2
0
4
16
20
25
27
27
23
16
20
30
25
4
-9
-13
-30
-55
-64
-55
-41
-25
-9
2
0
-11
-18
-23
-20
-11
-6
-4
-4
-2
4
-11
27
317
783
1120
1113
510
-352
-524
-150
-71
-143
-64
-53
-97
-69
-37
-32
-16
-16
-27
-9
30
48
55
78
118
146
178
224
259
294
329
343
338
338
324
280
215
150
90
32
-11
-30
-32
-46
-67
-76
-67
-51
-44
-41
-30
-27
-20
2
16
11
16
27
37
41
46
48
46
48
53
55
53
53
48
41
48
55
55
44
25
16
9
-6
-20
-34
-67
-104
-109
-111
-132
-139
-132
-129
-120
-99
-95
-104
-109
-97
-74
-46
-30
-27
-20
-16
-20
-25
-25
-25
-20
-13
-4
9
0
-23
-37
81
459
897
1108
853
16
-654
-459
-122
-169
-157
-37
-37
-51
-4
13
2
20
51
64
71
88
106
120
148
190
227
259
289
315
343
366
373
364
340
306
250
166
74
2
-41
-71
-76
-71
-74
-88
-118
-122
-104
-90
-81
-90
-118
-113
-83
-64
-53
-44
-41
-34
-27
-27
-27
-25
-27
-25
-11
-4
0
-2
-2
2
2
0
2
-4
-18
-23
-18
-23
-37
-51
-48
-44
-41
-39
-41
-51
-51
-41
-39
-39
-39
-44
-44
-27
-11
2
20
23
11
6
6
-9
-34
-37
-23
-13
-2
-6
-13
134
500
874
1080
860
57
-528
-308
-34
-97
-81
-16
-57
-60
-23
-27
-25
-2
11
23
41
62
78
97
125
153
183
222
255
285
313
329
338
338
322
285
229
162
95
46
6
-16
-20
-23
-30
-27
-27
-32
-27
-20
-16
-2
4
9
18
25
30
25
6
6
23
27
27
37
39
44
51
46
44
48
51
53
55
53
46
16
-11
-2
0
-23
-32
-53
-81
-69
-55
-69
-76
-69
-71
-81
-88
-97
-95
-83
-78
-67
-46
-37
-48
-64
-62
-53
-48
-46
-44
-41
-32
-30
-46
27
310
674
964
971
343
-445
-484
-134
-106
-136
-27
-16
-51
-27
-23
-32
-9
6
6
20
46
69
92
111
127
157
199
243
278
301
315
324
324
303
276
227
153
88
41
4
-30
-81
-120
-111
-90
-83
-78
-78
-74
-55
-39
-27
-20
-23
-18
-4
11
23
27
20
20
34
48
51
39
25
30
41
44
46
48
41
41
51
60
62
60
53
53
51
30
20
27
23
25
41
48
46
39
34
37
44
48
62
67
62
74
81
71
57
32
16
20
32
25
11
2
-11
-41
-20
204
591
925
1043
626
-234
-593
-287
-171
-255
-155
-83
-115
-99
-67
-69
-57
-30
-25
-34
-27
-6
13
46
78
104
136
176
211
250
280
285
280
278
266
220
143
67
6
-46
-85
-102
-122
-160
-166
-150
-141
-127
-115
-113
-115
-118
-109
-85
-71
-67
-62
-55
-51
-41
-34
-30
-23
-18
-18
-16
-18
-18
-16
-13
-16
-16
-11
-4
-4
-13
-18
-32
-60
-76
-69
-69
-81
-102
-118
-102
-78
-76
-74
-57
-46
-41
-41
-46
-53
-55
-51
-32
-16
-9
-13
-44
-69
78
500
953
1113
744
-146
-721
-461
-185
-250
-201
-95
-120
-129
-81
-62
-60
-39
-18
2
16
27
48
81
115
146
180
220
257
296
331
352
357
347
324
292
238
166
90
25
-16
-30
-37
-57
-95
-136
-153
-129
-111
-104
-92
-83
-76
-51
-25
-18
-18
-11
2
16
25
30
30
13
-6
-13
0
6
0
0
13
20
23
27
27
20
16
13
18
20
11
13
37
53
57
71
88
85
81
78
81
78
74
74
83
92
97
88
64
185
570
994
1192
932
106
-514
-301
-6
-78
-71
25
11
-2
34
34
16
13
13
18
37
51
53
55
81
118
155
185
201
218
238
236
227
213
150
57
11
-30
-97
-146
-173
-204
-215
-206
-190
-180
-178
-173
-160
-139
-118
-106
-102
-90
-69
-51
-39
-32
-30
-20
-6
2
9
9
11
13
16
23
30
30
23
23
27
20
11
9
11
18
25
34
37
30
23
25
30
41
57
67
71
85
102
104
92
76
76
78
64
34
4
-16
-18
-25
-9
204
603
939
1046
626
-220
-558
-218
-57
-132
-51
18
-16
-2
34
37
37
46
46
51
64
76
74
81
92
104
136
178
206
231
252
259
257
252
220
160
97
37
-20
-64
-97
-111
-111
-113
-106
-95
-88
-83
-78
-71
-55
-39
-34
-32
-27
-16
-4
4
9
4
-9
-13
0
6
2
4
-2
-6
4
13
4
-13
-41
-44
-23
-16
-20
-18
-11
-2
6
13
13
16
18
27
39
39
27
23
30
48
67
74
74
83
99
97
71
51
46
46
48
55
57
60
32
-32
-25
213
591
918
1052
637
-208
-526
-185
-41
-125
-48
18
-9
11
48
37
30
27
11
11
32
27
20
39
62
76
85
78
90
136
164
169
176
171
153
125
76
16
-44
-102
-129
-129
-127
-120
-122
-129
-118
-95
-81
-74
-69
-64
-55
-51
-53
-41
-34
-39
-27
-9
0
4
6
9
11
18
25
25
23
25
32
39
46
51
51
53
55
64
74
74
67
64
60
34
25
32
23
18
30
39
37
34
32
34
51
64
74
88
92
81
76
78
69
30
2
6
23
30
32
11
34
264
691
1055
1138
658
-229
-570
-220
-62
-143
-67
-4
-44
-34
-6
-23
-27
-20
-25
-13
11
20
27
48
76
102
139
173
204
234
255
266
276
276
255
218
164
83
-20
-99
-122
-136
-160
-153
-132
-134
-129
-113
-106
-102
-88
-71
-60
-44
-32
-25
-16
-6
2
11
11
9
-11
-41
-34
-16
-23
-25
-20
-23
-30
-34
-37
-46
-71
-90
-71
-57
-62
-60
-55
-55
-44
-25
-13
-9
-2
18
32
27
13
4
2
9
20
30
27
25
16
0
106
487
943
1124
814
-9
-633
-447
-141
-199
-185
-60
-67
-90
-62
-76
-102
-88
-69
-64
-62
-55
-32
-2
25
55
85
115
160
206
238
259
264
255
236
194
127
55
-34
-125
-164
-164
-169
-173
-173
-169
-153
-136
-122
-109
-102
-95
-67
-41
-30
-23
-18
-9
9
23
34
37
30
30
41
51
44
27
11
-2
-2
11
23
23
13
18
37
46
55
60
51
44
51
62
71
81
83
83
106
134
134
115
102
99
104
111
115
118
104
88
78
88
250
621
978
1141
846
20
-484
-218
16
-57
-13
69
18
-30
-13
-6
-13
-9
-6
-11
0
23
41
60
78
104
134
171
204
220
229
238
231
204
183
150
97
37
-23
-74
-97
-104
-115
-120
-111
-97
-85
-76
-71
-60
-53
-46
-34
-39
-69
-74
-53
-39
-32
-25
-30
-44
-41
-32
-25
-23
-20
-16
-11
-11
-11
-6
-6
-6
-4
4
9
9
9
16
13
11
4
-27
-57
-55
-48
-53
-44
-27
-23
-13
-2
-11
-27
-39
-44
-46
-62
-88
-90
-76
-62
-60
-78
-27
227
591
888
941
412
-385
-524
-162
-83
-132
-34
0
-37
-18
9
9
20
32
25
13
13
23
37
51
69
99
134
166
197
224
241
248
255
255
231
183
125
69
25
-13
-48
-64
-67
-60
-48
-41
-48
-71
-88
-69
-53
-67
-76
-60
-46
-32
-20
-13
-30
-53
-46
-23
-11
-9
-11
-9
2
13
23
27
23
25
34
48
53
55
53
53
62
74
81
85
78
69
69
83
90
83
74
69
76
83
97
109
99
95
122
143
136
118
102
95
109
118
120
125
118
104
92
164
438
800
1071
1062
454
-322
-385
-44
-23
-64
41
64
34
51
39
18
39
57
46
13
-18
-18
0
20
41
62
85
122
157
180
185
155
120
122
118
76
25
-34
-102
-141
-155
-162
-166
-173
-176
-166
-150
-134
-125
-122
-115
-104
-92
-81
-76
-78
-76
-67
-60
-57
-57
-62
-62
-51
-44
-44
-51
-55
-57
-69
-81
-76
-69
-67
-60
-57
-48
-34
-34
-55
-69
-55
-46
-60
-81
-76
-64
-64
-57
-51
-41
-20
-4
0
16
44
55
46
39
39
41
39
39
51
60
62
62
60
171
517
925
1152
941
139
-514
-338
-34
-83
-67
25
0
-18
9
6
2
23
32
39
51
64
81
97
115
132
146
176
215
241
264
287
292
285
271
250
208
136
51
0
-34
-67
-76
-76
-81
-81
-69
-62
-48
-32
-25
-32
-57
-64
-41
-25
-25
-23
-23
-18
-2
4
2
4
4
9
20
25
25
30
32
37
44
46
48
53
53
57
69
74
62
53
62
78
92
115
122
111
95
78
64
69
71
67
71
88
90
67
78
322
804
1157
1048
322
-528
-612
-201
-129
-180
-64
-23
-62
-37
-11
-18
-13
-18
-23
0
23
30
30
4
0
48
106
139
166
190
213
231
236
229
206
155
88
25
-25
-67
-102
-127
-129
-120
-118
-113
-104
-99
-85
-64
-48
-32
-20
-25
-27
-25
-20
-4
2
-4
-2
9
18
23
16
11
20
30
34
20
-9
-20
-6
2
0
4
13
18
27
41
64
78
71
57
55
55
46
32
37
46
51
55
41
69
331
765
1073
1062
475
-385
-568
-185
-88
-139
-25
16
-25
6
46
39
46
71
81
85
95
106
118
132
143
143
157
190
211
215
227
231
227
220
192
136
71
11
-41
-83
-113
-143
-169
-173
-160
-153
-150
-136
-120
-109
-95
-78
-74
-67
-51
-44
-48
-48
-46
-41
-34
-27
-23
-18
-18
-16
-6
0
2
2
6
13
18
13
6
-16
-51
-44
-9
-4
-4
18
37
32
25
20
20
18
6
2
9
16
6
-39
-48
166
556
888
1020
633
-222
-582
-236
-62
-134
-51
20
-20
-27
-9
-9
2
25
44
53
67
83
102
125
155
173
187
211
243
273
294
306
301
287
266
227
160
90
32
-20
-57
-81
-95
-109
-122
-127
-118
-106
-99
-95
-111
-139
-141
-118
-104
-97
-88
-88
-90
-85
-69
-60
-67
-71
-60
-46
-37
-37
-37
-32
-20
-11
-6
-4
-4
-2
9
13
-4
-30
-39
-30
-11
6
18
30
46
55
55
39
18
11
13
20
34
46
53
48
18
85
387
779
1064
1029
364
-410
-403
-46
-37
-71
30
41
20
60
78
67
76
95
104
120
136
146
143
157
187
218
238
234
227
257
285
285
280
273
241
194
148
92
44
0
-30
-39
-34
-37
-53
-78
-88
-74
-69
-74
-76
-81
-92
-95
-95
-97
-95
-92
-90
-83
-74
-67
-62
-62
-64
-57
-48
-44
-41
-39
-41
-32
-18
-18
-16
-9
-9
-6
-6
-20
-48
-53
-37
-30
-25
-20
-27
-30
-23
-18
-18
-20
-18
0
11
16
37
55
46
32
23
16
11
-13
-37
-23
-9
-18
-37
-30
160
554
918
1032
589
-294
-649
-303
-162
-252
-157
-88
-129
-111
-71
-76
-69
-51
-41
-25
-2
13
25
41
69
104
136
169
201
224
248
266
262
243
222
187
146
81
4
-55
-104
-141
-146
-141
-146
-146
-136
-127
-118
-109
-99
-88
-81
-69
-44
-32
-37
-34
-25
-16
-2
0
-6
-27
-60
-71
-71
-81
-78
-64
-62
-60
-53
-55
-53
-44
-34
-23
-4
6
0
-9
0
13
25
32
39
48
60
83
104
97
74
60
67
83
90
95
97
95
83
81
185
547
1008
1231
976
162
-524
-375
-39
-69
-53
81
83
57
92
104
106
132
146
148
153
164
185
215
238
245
250
280
317
315
299
303
292
262
241
206
146
53
-57
-120
-141
-164
-178
-187
-199
-199
-183
-160
-143
-141
-143
-134
-106
-85
-88
-109
-122
-109
-88
-78
-76
-78
-78
-71
-57
-55
-69
-83
-78
-69
-64
-53
-46
-53
-53
-41
-32
-32
-37
-41
-32
-13
-6
0
20
25
9
0
0
-2
-2
-4
-4
0
-9
-44
-76
30
385
800
1013
802
11
-665
-500
-166
-199
-201
-111
-122
-127
-74
-53
-48
-32
-13
4
25
46
62
76
92
120
155
190
213
231
245
248
245
234
199
153
104
37
-27
-74
-109
-129
-129
-129
-129
-125
-118
-106
-99
-92
-76
-57
-48
-37
-23
-11
0
9
9
18
34
32
20
2
-18
-23
-30
-30
-13
-6
-9
4
18
16
18
23
18
16
23
37
41
20
-2
25
57
55
41
37
34
44
51
53
57
60
62
60
55
185
519
876
1080
851
51
-517
-289
-20
-74
-30
69
41
27
71
85
85
106
118
118
129
153
173
192
208
220
236
266
301
324
329
317
285
245
218
183
111
32
-20
-55
-88
-120
-157
-190
-183
-162
-157
-155
-148
-139
-122
-106
-92
-85
-106
-127
-109
-83
-78
-69
-64
-62
-48
-39
-41
-48
-53
-48
-37
-23
-13
-9
-11
-9
9
23
27
27
23
27
44
53
53
46
37
39
55
74
85
85
90
109
115
106
99
92
78
60
46
32
37
41
23
16
162
505
869
1092
885
102
-480
-276
-9
-74
-48
51
39
37
74
71
64
90
106
115
125
125
132
157
178
190
206
231
259
292
320
329
303
257
231
211
155
78
6
-57
-106
-129
-136
-141
-148
-146
-136
-127
-115
-111
-111
-102
-85
-76
-67
-55
-53
-62
-60
-48
-57
-81
-78
-67
-67
-57
-44
-44
-44
-34
-25
-18
-16
-16
-11
0
9
13
23
23
23
34
39
37
44
46
46
53
53
37
30
37
46
51
55
60
62
62
67
64
57
55
41
11
16
37
37
44
51
20
-4
0
2
4
13
20
27
37
37
18
18
185
570
960
1138
790
-95
-577
-262
-44
-143
-104
-44
-90
-81
-46
-55
-51
-27
-27
-25
-11
-9
-4
18
41
64
92
125
153
173
199
218
213
204
192
164
122
74
20
-30
-71
-95
-104
-102
-99
-102
-97
-83
-69
-57
-51
-57
-85
-95
-69
-46
-44
-44
-39
-27
-9
0
2
-4
-16
-13
4
11
11
9
-2
-16
-2
11
4
-6
0
13
30
44
39
30
34
48
55
62
64
60
60
69
78
81
81
76
69
64
62
67
74
71
81
102
104
90
78
71
74
88
97
97
90
69
44
127
470
937
1182
974
185
-556
-475
-122
-148
-169
-39
-25
-55
-18
-11
-32
-13
18
30
25
2
-13
4
23
48
83
113
150
192
227
250
264
259
243
227
190
125
57
-2
-46
-74
-83
-88
-95
-99
-99
-104
-102
-85
-78
-74
-60
-44
-27
-13
-6
-4
0
9
20
25
25
25
25
30
37
37
37
41
44
44
37
16
-11
-20
-11
-2
2
-2
-6
2
11
13
11
-11
-34
-32
-48
-81
-78
-60
-46
-32
-34
-32
-6
2
-16
-34
-48
-57
-67
-69
-57
-48
-53
-69
-71
81
456
825
997
728
-85
-635
-382
-118
-187
-139
-37
-64
-64
-13
-4
-6
9
20
34
60
74
85
109
134
164
197
229
262
296
320
333
340
331
303
252
197
139
74
18
-18
-41
-51
-41
-44
-74
-118
-141
-134
-113
-99
-92
-85
-74
-57
-39
-30
-23
-18
-11
2
11
16
18
13
9
4
0
2
4
-2
0
13
20
23
23
20
27
39
46
48
46
44
51
60
64
67
64
57
55
46
39
39
32
18
20
23
18
11
-6
-23
-27
-32
-30
-25
-27
-30
-20
-11
-16
-27
62
350
709
981
879
155
-528
-417
-95
-120
-120
-23
-41
-55
-2
18
16
11
-16
-32
-11
11
32
46
62
92
132
169
208
238
257
271
289
299
292
262
204
136
81
34
-13
-78
-122
-115
-97
-92
-83
-78
-78
-64
-51
-55
-62
-57
-48
-37
-20
-6
0
-2
-2
9
23
27
25
23
9
-9
-11
0
0
-4
-2
9
20
25
25
25
27
34
41
46
46
34
18
20
34
25
-9
-25
-13
-4
-2
2
-4
-9
0
13
27
27
20
30
44
41
20
-2
-18
-30
-32
-27
-20
-18
-20
-37
-30
150
505
848
1020
677
-176
-591
-271
-88
-169
-95
-23
-60
-44
-4
-4
6
20
6
0
18
41
55
78
106
132
160
194
231
264
289
308
310
299
287
259
206
141
81
37
-2
-32
-51
-76
-99
-92
-81
-83
-74
-57
-51
-44
-30
-16
-6
-4
2
11
16
23
27
27
30
37
32
16
6
9
18
30
37
34
30
34
46
48
44
44
46
51
55
67
64
34
6
9
23
30
27
30
46
53
55
74
95
88
55
27
18
25
27
16
0
-6
-13
-37
32
361
795
1027
834
57
-679
-609
-287
-299
-285
-153
-146
-199
-187
-157
-146
-125
-109
-132
-143
-109
-83
-76
-46
-16
6
53
106
143
169
180
190
206
208
183
132
57
-13
-64
-104
-141
-178
-211
-213
-199
-194
-187
-178
-180
-171
-148
-127
-111
-102
-111
-111
-88
-60
-51
-57
-57
-41
-25
-18
-11
-16
-18
-4
6
11
18
18
20
34
46
48
51
51
41
37
53
74
64
27
30
55
46
27
27
20
20
37
48
55
64
64
46
51
259
684
1034
1101
654
-213
-584
-238
-83
-194
-111
-18
-57
-55
-16
-18
-13
11
23
27
34
51
71
95
122
153
178
211
252
287
310
317
313
308
292
248
187
120
57
9
-25
-44
-51
-53
-48
-39
-41
-37
-18
-11
-6
-2
-9
-6
-2
-30
-48
-30
-13
-11
-9
-6
-2
6
11
16
18
16
20
30
30
30
32
20
0
0
9
4
-2
0
9
27
39
39
39
51
62
57
44
30
-2
-27
-11
11
9
9
9
-4
74
361
728
994
969
343
-408
-419
-76
-57
-85
25
44
13
37
44
27
41
44
25
20
25
25
37
62
85
104
125
153
190
222
236
227
192
157
141
106
41
-20
-74
-106
-134
-164
-176
-169
-166
-162
-141
-118
-113
-125
-125
-106
-85
-71
-60
-60
-60
-41
-25
-16
-13
-18
-20
-9
4
9
11
6
4
13
25
34
37
30
27
34
41
46
44
44
53
57
53
74
90
74
57
62
64
69
71
69
74
83
88
71
90
306
674
997
1087
612
-224
-470
-113
9
-62
-6
-13
-78
-44
4
-2
-11
-6
0
20
48
64
78
97
120
150
187
220
248
273
282
278
271
266
243
185
109
41
-16
-67
-104
-125
-136
-134
-127
-122
-120
-125
-132
-132
-118
-106
-99
-90
-78
-69
-57
-51
-51
-44
-37
-34
-25
-16
-16
-18
-16
-4
2
2
2
11
16
18
23
20
0
-23
-25
-20
-32
-55
-69
-64
-46
-23
-16
-53
-95
-90
-76
-74
-62
-55
-53
-46
-53
-60
78
438
825
1025
779
-32
-605
-375
-106
-164
-125
-23
-48
-62
-34
-39
-39
-16
-6
-11
6
32
44
53
71
95
129
162
190
222
243
245
248
255
243
218
166
102
48
2
-48
-74
-81
-97
-125
-150
-164
-176
-178
-160
-141
-134
-127
-132
-162
-164
-129
-113
-120
-115
-102
-88
-81
-81
-78
-69
-55
-48
-44
-32
-23
-25
-27
-23
-9
0
9
18
13
20
46
57
48
44
44
44
48
60
64
62
62
69
74
139
438
913
1213
1071
364
-426
-461
-88
-39
-62
64
95
51
76
115
113
104
97
92
106
127
148
176
201
211
229
278
320
340
357
338
303
308
310
280
236
171
97
48
23
-9
-34
-55
-74
-74
-64
-55
-51
-62
-81
-76
-62
-64
-74
-71
-64
-55
-46
-41
-46
-53
-48
-39
-37
-34
-41
-53
-51
-39
-37
-46
-64
-76
-55
-32
-32
-39
-44
-48
-46
-41
-60
-88
-92
-81
-81
-55
199
698
1078
1020
371
-487
-651
-255
-148
-211
-95
-23
-55
-46
-13
-11
-2
18
23
-2
-16
4
34
57
85
115
136
160
192
220
238
245
238
227
201
150
81
16
-41
-85
-106
-113
-115
-120
-118
-109
-92
-74
-67
-60
-39
-25
-13
2
13
11
2
-11
-18
-13
-27
-69
-88
-90
-99
-99
-90
-83
-83
-78
-57
-41
-46
-55
-57
-57
-48
-34
-30
-27
-18
-11
-23
4
262
751
1115
1059
415
-429
-568
-183
-97
-155
-41
-9
-78
-48
4
0
11
37
37
53
90
104
111
143
180
213
250
289
320
336
345
359
364
343
301
245
176
106
39
-9
-30
-41
-60
-85
-97
-90
-85
-76
-57
-44
-30
-13
-6
0
16
32
37
41
44
44
44
48
51
41
27
32
51
62
60
48
44
39
34
23
9
-13
-34
-32
-23
-20
-25
-69
-129
18
461
897
1050
658
-255
-746
-426
-185
-262
-199
-99
-122
-118
-64
-53
-57
-39
-20
-20
-6
20
32
53
85
95
111
153
190
215
248
264
262
255
220
164
111
60
6
-39
-69
-78
-74
-69
-64
-64
-64
-60
-44
-27
-18
-23
-20
0
16
23
32
37
34
37
53
57
53
51
51
53
57
62
62
53
41
41
51
60
51
20
9
37
57
57
48
32
16
11
6
2
4
4
-6
-39
-67
74
426
776
955
640
-199
-656
-364
-148
-220
-155
-62
-88
-88
-51
-44
-37
-13
0
4
23
44
60
78
95
106
139
178
213
243
266
273
276
269
248
208
148
85
32
-6
-32
-41
-48
-51
-41
-37
-30
-18
-13
-13
-6
0
6
4
-20
-44
-41
-39
-32
-23
-23
-18
-6
-2
0
-6
-25
-23
-4
-2
-4
2
6
9
13
18
25
27
25
32
44
46
44
44
46
55
57
41
16
6
13
9
-11
-25
-44
-81
-97
-81
-74
-78
-76
-67
-62
-57
-55
-60
-57
-44
-23
2
13
11
11
11
9
9
9
11
16
16
11
9
11
-18
-39
129
498
874
1092
765
-106
-563
-287
-109
-185
-122
-53
-78
-55
-6
-4
-9
9
25
44
67
85
92
102
132
166
194
213
227
245
278
306
315
315
301
271
231
183
129
78
27
-4
-11
-6
-2
2
0
2
6
4
2
6
-2
-18
-16
-13
-27
-41
-48
-60
-64
-53
-48
-53
-55
-51
-39
-30
-27
-32
-37
-34
-37
-51
-62
-85
-115
-104
-78
-76
-69
-62
-67
-60
-39
-25
-20
-23
-20
-6
2
-2
-9
-9
-9
-2
11
25
30
27
27
41
53
53
46
41
51
74
99
109
106
104
102
92
88
90
90
90
92
97
104
111
97
64
166
507
918
1213
1064
255
-431
-278
4
-69
-69
32
11
-23
-6
-23
-48
-44
-30
-18
-4
6
16
34
55
81
113
125
115
141
180
183
176
164
134
109
81
25
-34
-83
-125
-148
-157
-162
-157
-153
-143
-132
-127
-118
-111
-109
-99
-88
-81
-71
-62
-55
-46
-39
-39
-32
-23
-30
-41
-39
-34
-34
-39
-39
-30
-30
-34
-27
-30
-41
-37
-25
-30
-34
-39
-48
-46
-34
-30
-27
-27
-18
-2
6
4
4
2
2
6
-4
-30
-51
-76
-97
-95
-88
-90
-95
-85
-76
-76
-71
-55
-41
-27
-4
11
16
9
0
-6
-4
9
27
27
23
30
41
27
18
176
582
1011
1229
955
83
-524
-287
-23
-97
-55
51
20
9
62
81
76
95
109
106
97
92
109
139
155
176
218
262
287
315
347
364
368
373
361
333
280
204
146
106
57
2
-51
-83
-78
-57
-55
-60
-60
-51
-41
-32
-13
2
6
16
25
30
30
30
20
18
18
6
-2
-20
-46
-48
-37
-32
-30
-34
-39
-32
-20
-16
-16
-20
-20
-9
-2
-2
2
11
9
-11
-37
-30
-20
-55
-90
-69
-44
-41
-39
-37
-37
-32
-34
-37
-46
-48
-23
2
18
27
30
27
23
16
9
11
18
18
16
20
30
13
-34
57
459
916
1115
832
-11
-619
-396
-111
-183
-166
-67
-83
-90
-46
-37
-41
-30
-16
-2
13
27
44
64
92
120
148
190
234
269
303
320
299
282
289
276
222
162
104
46
-6
-41
-62
-81
-88
-81
-78
-74
-64
-57
-46
-20
-11
-9
4
18
32
53
55
48
55
69
71
60
46
44
46
39
23
16
4
-4
-6
-11
-23
-62
-97
-90
-76
-78
-67
-57
-62
-51
-39
-37
-30
-23
-20
-11
-2
2
9
13
13
20
30
16
-13
-25
-18
4
30
46
57
57
48
37
25
20
16
13
32
48
51
51
44
20
69
352
781
1101
1129
556
-285
-442
-78
-20
-90
20
67
32
62
90
74
81
109
122
120
97
67
74
109
132
150
183
213
248
287
320
336
329
310
303
287
238
166
78
-6
-48
-60
-67
-76
-99
-118
-102
-85
-83
-78
-76
-76
-71
-67
-55
-46
-46
-41
-30
-18
-9
-6
-18
-20
-6
-2
-6
-11
-25
-41
-44
-41
-44
-57
-78
-90
-95
-99
-99
-106
-120
-118
-111
-113
-125
-136
-139
-127
-113
-106
-97
-90
-90
-81
-64
-53
-44
-41
-44
-34
-18
-11
-20
-55
-78
-57
-23
4
25
16
-13
-27
-16
-13
-23
-27
-32
-30
-16
2
0
-25
0
222
600
946
1106
707
-153
-496
-157
-11
-99
-20
46
11
32
74
69
69
88
97
113
132
136
146
164
183
194
208
234
269
299
322
340
347
343
336
315
278
227
169
111
67
37
20
13
11
16
20
23
25
27
2
-18
-18
-34
-53
-55
-57
-71
-76
-62
-44
-39
-34
-13
0
-11
-20
-11
-9
-2
6
2
-2
0
-11
-9
-6
-18
-18
-18
-32
-32
-16
-13
-18
-13
-9
-6
-4
-16
-27
-25
-18
-11
-9
-11
-20
-48
-67
-48
-39
-57
-57
-44
-41
-44
-46
-37
-18
0
18
27
25
23
18
4
-4
2
-4
-32
-34
-25
-44
-74
-27
201
535
832
969
524
-338
-614
-273
-164
-234
-136
-88
-132
-113
-76
-78
-74
-51
-44
-41
-25
-2
18
39
51
67
102
139
162
178
199
213
224
238
238
220
187
139
92
53
13
-16
-39
-48
-39
-25
-16
-11
-16
-11
6
25
41
46
41
41
57
67
62
39
9
2
20
34
34
20
2
4
18
20
11
-25
-74
-85
-67
-62
-62
-57
-64
-69
-53
-37
-30
-27
-32
-27
-16
-6
2
4
-2
4
11
4
2
9
23
41
51
53
62
64
60
57
67
83
102
120
129
127
127
129
120
102
95
106
113
118
120
115
97
92
243
621
1004
1187
930
109
-480
-255
2
-81
-48
62
44
27
60
64
60
74
97
97
62
53
81
102
115
141
160
187
224
257
282
299
296
287
273
248
213
160
76
9
-25
-57
-88
-97
-97
-88
-76
-71
-67
-57
-51
-39
-27
-16
-4
2
13
20
13
16
30
25
9
9
13
4
-16
-48
-83
-104
-109
-99
-97
-104
-97
-88
-85
-85
-74
-62
-60
-67
-60
-51
-46
-34
-20
-20
-25
-30
-57
-81
-64
-39
-27
-13
-2
6
13
-4
-25
-27
-34
-34
-13
-2
4
20
20
16
160
570
1008
1145
779
-62
-579
-301
-34
-102
-48
67
48
39
85
88
76
97
122
132
134
132
134
134
139
169
190
204
236
278
310
324
324
322
317
303
282
238
162
88
39
6
-11
-25
-34
-39
-32
-16
0
4
-2
2
11
11
9
9
-18
-46
-30
-6
-9
-11
-16
-16
-6
0
2
4
4
4
6
11
23
23
2
-11
-6
9
11
2
-2
11
9
-9
-23
-51
-81
-76
-81
-104
-97
-81
-102
-115
32
429
844
1013
709
-118
-665
-408
-129
-197
-153
-39
-55
-67
-30
-53
-83
-51
-16
-6
6
23
30
34
53
90
125
150
183
220
245
271
282
269
252
241
208
143
57
-25
-74
-90
-97
-106
-136
-164
-155
-132
-115
-99
-85
-76
-67
-53
-41
-44
-51
-46
-41
-51
-64
-64
-60
-60
-53
-39
-32
-32
-32
-25
-18
-13
-11
-16
-25
-16
2
13
27
48
60
60
55
51
55
57
53
44
44
51
46
23
134
496
897
1106
916
143
-505
-336
-27
-71
-51
57
41
23
55
55
30
11
4
9
9
6
11
23
44
67
88
99
113
139
166
183
180
155
125
109
88
44
-11
-57
-95
-115
-125
-129
-129
-125
-118
-106
-85
-67
-60
-53
-44
-32
-16
-6
-2
-4
-13
-27
-18
-6
-11
-16
-6
-4
-13
-20
-16
-6
-2
0
6
9
2
-6
-6
9
32
44
46
55
67
67
57
51
34
0
-18
0
11
0
-23
-46
23
310
705
994
983
345
-475
-526
-141
-106
-157
-48
-20
-53
-18
6
-27
-48
-25
-4
11
37
53
64
97
127
150
178
204
215
222
236
248
243
227
211
185
139
85
39
-9
-48
-69
-83
-90
-97
-111
-120
-120
-122
-129
-139
-141
-141
-136
-134
-129
-132
-136
-132
-129
-146
-157
-155
-153
-155
-146
-132
-122
-122
-132
-146
-153
-134
-127
-157
-169
-148
-141
-134
-118
-120
-120
-85
-48
-32
-18
-13
-20
-27
-27
-20
-11
-11
-13
4
32
34
6
67
347
718
997
1011
426
-366
-440
-78
-27
-67
37
55
25
55
81
85
104
113
104
111
134
148
160
187
213
211
208
238
271
278
287
296
287
271
255
231
187
118
51
-9
-69
-92
-90
-90
-88
-76
-64
-55
-44
-32
-18
-13
-16
-18
-18
-16
-18
-32
-51
-62
-69
-69
-67
-69
-67
-64
-67
-64
-57
-53
-51
-46
-41
-32
-13
4
11
4
6
23
20
4
6
20
30
25
9
18
51
55
46
51
67
83
95
90
69
44
13
2
23
32
16
-9
-27
-30
104
442
807
1022
832
57
-545
-347
-76
-162
-166
-64
-64
-69
-32
-34
-48
-34
-16
-6
4
16
25
41
64
90
109
122
148
176
192
199
192
171
160
155
139
104
53
2
-39
-69
-81
-97
-127
-143
-136
-143
-155
-146
-132
-127
-125
-113
-97
-88
-90
-92
-83
-71
-64
-64
-78
-81
-67
-62
-64
-60
-62
-60
-44
-27
-23
-18
-18
-16
-2
16
20
18
18
27
39
46
53
46
13
-4
13
34
46
51
57
81
102
102
85
69
55
62
74
81
92
95
71
99
333
767
1129
1159
605
-266
-514
-143
-20
-97
4
76
44
57
83
78
92
113
122
141
155
146
127
132
162
185
192
199
222
252
264
255
238
220
194
166
146
106
37
-20
-53
-76
-95
-97
-99
-104
-95
-78
-62
-69
-102
-111
-92
-78
-64
-53
-55
-53
-46
-41
-32
-30
-32
-25
-16
-11
-9
-9
-9
-13
-25
-25
-9
-27
-60
-51
-37
-48
-48
-32
-20
-13
13
51
57
39
34
18
-13
-4
18
11
11
27
25
18
136
524
992
1180
834
-34
-642
-412
-95
-136
-102
20
13
-4
44
62
48
67
92
97
106
129
148
157
148
139
166
204
213
215
220
224
220
206
194
183
150
92
20
-39
-81
-122
-155
-160
-153
-148
-141
-134
-127
-104
-78
-67
-60
-48
-37
-30
-32
-44
-55
-57
-51
-44
-34
-23
-20
-20
-23
-16
-2
-2
-27
-41
-27
-13
-9
6
20
16
23
51
62
55
51
48
41
39
57
74
67
60
64
51
153
524
953
1117
841
48
-572
-391
-118
-201
-180
-53
-57
-69
-30
-18
-11
18
41
46
48
62
92
113
136
173
197
215
250
278
282
266
234
220
227
211
160
90
18
-41
-78
-106
-139
-169
-173
-160
-146
-132
-115
-106
-106
-92
-71
-57
-48
-46
-46
-39
-27
-20
-16
-20
-27
-18
-9
-6
-23
-55
-74
-60
-41
-34
-34
-46
-62
-60
-34
-16
-34
-55
-41
-27
-32
-39
-39
-39
-39
-27
-13
-9
-11
-27
-34
125
510
883
1041
721
-118
-619
-345
-102
-166
-115
-25
-57
-74
-51
-46
-44
-25
-11
2
16
25
39
62
85
111
139
164
190
211
231
245
245
234
227
211
173
125
76
34
4
-20
-27
-23
-25
-39
-51
-41
-25
-20
-27
-30
-30
-37
-30
-20
-25
-23
-16
-20
-25
-37
-69
-83
-67
-62
-62
-51
-51
-71
-92
-88
-69
-60
-55
-46
-41
-51
-62
-62
-53
-37
-18
-9
0
20
39
41
32
18
13
23
32
44
55
57
60
46
51
245
607
927
1085
756
-78
-487
-169
20
-55
9
71
39
55
88
81
83
109
122
127
143
155
162
185
213
229
250
276
296
317
331
336
320
278
234
206
160
97
48
4
-25
-39
-53
-71
-81
-71
-57
-44
-32
-20
-18
-20
-20
-18
-9
-2
-16
-32
-37
-39
-46
-53
-83
-115
-111
-92
-85
-85
-95
-97
-81
-64
-60
-55
-60
-67
-57
-41
-32
-32
-34
-27
-13
-2
6
11
4
2
9
18
25
27
27
37
53
76
95
90
67
55
57
44
23
27
32
32
27
6
11
173
487
814
1006
693
-136
-558
-252
-60
-129
-53
23
-16
-9
34
41
48
69
74
78
95
115
134
153
166
180
211
241
266
278
276
273
278
280
271
248
213
169
122
74
27
-2
-23
-41
-55
-57
-62
-74
-78
-71
-64
-57
-48
-44
-46
-44
-39
-44
-67
-78
-67
-71
-90
-81
-62
-64
-67
-60
-55
-55
-67
-92
-92
-71
-62
-57
-57
-53
-37
-30
-30
-18
-6
-2
2
9
16
23
27
32
39
39
34
32
27
27
37
44
53
64
71
88
99
92
81
76
74
81
88
88
88
92
88
67
113
385
821
1138
1110
487
-343
-454
-78
-37
-118
-16
9
-37
-4
30
20
23
34
37
25
-4
-30
-13
18
20
18
20
32
57
81
99
104
99
97
97
85
51
-6
-55
-88
-118
-146
-169
-194
-201
-180
-162
-157
-148
-139
-132
-113
-90
-88
-92
-92
-88
-81
-74
-78
-88
-85
-78
-81
-76
-74
-81
-85
-81
-74
-67
-62
-60
-67
-88
-106
-97
-76
-74
-71
-48
-37
-46
-46
-39
-34
-18
9
23
30
44
55
53
48
46
34
6
-11
4
25
39
39
16
97
456
937
1173
927
113
-584
-438
-88
-120
-122
-4
-6
-39
-6
9
2
11
27
44
62
85
92
99
122
155
185
213
236
250
273
294
301
299
282
252
197
115
48
2
-48
-88
-95
-95
-99
-97
-90
-78
-60
-39
-25
-16
-4
4
18
30
37
41
39
34
39
46
46
44
44
44
46
46
37
27
30
30
32
46
44
13
-2
11
20
13
9
11
16
25
37
51
62
74
85
83
81
78
69
69
78
83
90
99
92
64
62
252
642
971
1039
565
-322
-654
-285
-129
-224
-148
-78
-122
-109
-69
-81
-76
-48
-44
-34
-13
-2
11
41
62
81
113
141
162
190
204
192
176
166
157
134
88
32
-23
-76
-109
-125
-143
-155
-180
-211
-204
-178
-173
-166
-148
-134
-120
-106
-99
-90
-81
-74
-55
-41
-44
-41
-39
-46
-48
-39
-39
-57
-74
-60
-39
-34
-27
-18
-13
-6
9
20
20
20
18
25
37
48
57
67
74
95
113
115
99
85
83
95
99
90
81
81
81
67
109
357
728
1015
1076
586
-234
-436
-78
16
-44
60
104
53
39
27
16
32
41
34
30
25
39
64
88
109
125
139
160
192
218
231
231
211
183
176
160
106
41
-6
-37
-60
-71
-76
-88
-88
-74
-60
-48
-39
-39
-27
-6
6
16
20
18
25
39
34
23
20
18
18
30
39
39
37
32
37
46
55
60
55
51
57
69
78
76
74
71
76
81
78
53
9
-20
0
27
34
44
55
51
41
39
34
16
-16
-34
-39
-48
-41
-37
-62
-4
273
642
930
941
338
-449
-498
-132
-97
-141
-41
-25
-53
-16
6
-4
2
16
6
4
20
32
32
41
60
83
102
113
120
129
134
129
122
111
90
60
18
-25
-74
-118
-143
-153
-153
-150
-150
-148
-129
-115
-106
-88
-81
-83
-74
-57
-46
-46
-69
-85
-67
-64
-90
-92
-78
-71
-64
-55
-44
-39
-37
-25
-13
-11
0
9
11
18
32
37
37
44
51
55
53
34
27
32
34
48
69
78
81
92
111
118
109
95
90
92
99
111
115
113
111
97
111
313
681
1006
1127
725
-118
-454
-113
41
-41
25
88
60
74
106
99
97
118
134
136
118
74
51
78
111
127
139
153
169
183
197
201
192
176
169
155
115
62
9
-37
-67
-92
-118
-127
-129
-127
-111
-90
-81
-69
-57
-57
-44
-23
-11
-9
-6
-6
0
4
9
6
-16
-44
-41
-27
-20
-18
-23
-25
-11
-4
-2
0
-6
-6
4
11
11
16
9
11
25
27
23
9
-18
-20
4
13
13
25
30
27
25
23
16
9
0
2
11
16
9
-34
-71
104
524
909
1008
558
-329
-693
-329
-141
-218
-129
-53
-85
-62
-9
-4
-11
-2
9
30
48
51
53
67
81
95
122
157
183
197
206
215
218
199
178
162
125
69
18
-20
-62
-95
-102
-104
-109
-102
-111
-132
-120
-85
-67
-60
-53
-41
-27
-16
-4
2
0
2
13
20
18
16
11
-2
-4
9
-6
-39
-39
-20
-23
-20
-13
-18
-13
11
25
37
53
64
67
62
53
53
51
51
67
81
83
81
69
85
313
800
1206
1168
526
-354
-579
-192
-48
-104
4
78
41
51
99
104
97
113
111
92
106
129
143
166
194
206
231
266
282
292
306
299
278
266
245
192
118
44
-18
-71
-109
-122
-136
-157
-178
-199
-204
-178
-160
-153
-150
-164
-164
-136
-113
-109
-111
-104
-88
-74
-71
-74
-74
-69
-55
-55
-64
-76
-90
-99
-88
-67
-57
-57
-48
-27
-16
-16
-20
-32
-39
-34
-27
-39
-60
-64
-71
-92
4
378
837
1057
811
16
-637
-477
-162
-201
-187
-64
-71
-95
-51
-32
-37
-13
11
27
46
62
74
104
141
176
201
199
194
231
266
278
285
278
250
222
190
139
71
6
-37
-60
-74
-90
-111
-132
-134
-122
-115
-104
-95
-95
-88
-67
-55
-48
-44
-41
-37
-25
-18
-32
-60
-71
-62
-55
-48
-44
-48
-44
-25
-9
6
27
41
25
6
13
20
20
20
25
34
53
60
34
57
289
681
999
1073
593
-241
-484
-122
2
-62
25
71
32
51
83
90
76
46
48
76
78
76
92
109
129
166
199
229
259
278
282
287
294
287
252
211
164
106
60
27
-6
-46
-67
-51
-37
-46
-44
-30
-18
-4
9
18
20
16
16
23
27
-2
-46
-46
-32
-37
-41
-46
-62
-76
-81
-78
-81
-85
-85
-81
-64
-55
-53
-41
-16
-4
-13
-18
-20
-23
-13
-9
-18
-23
-32
-78
-109
-32
262
686
1004
957
292
-480
-503
-153
-125
-146
-27
-9
-41
-2
25
20
30
27
18
34
57
71
95
120
150
185
208
229
264
289
292
289
294
287
262
218
155
92
41
13
0
-13
-30
-39
-34
-23
-13
-6
-2
6
23
34
41
53
57
55
60
67
57
41
32
34
34
34
39
46
41
32
34
46
48
41
18
-25
-41
-13
0
-4
-2
-4
-18
-37
-57
-88
-109
-97
-81
-76
-69
-62
-90
-102
97
498
862
1011
603
-271
-623
-273
-104
-180
-99
-32
-60
-34
11
4
-2
20
41
55
81
97
97
118
155
183
213
245
266
285
296
287
282
280
255
213
169
113
60
13
-13
-25
-32
-34
-30
-30
-32
-27
-13
-6
0
9
18
25
34
46
39
9
-4
9
16
16
13
-2
-4
6
9
11
-2
-39
-51
-30
-20
-27
-55
-92
-102
-88
-85
-99
-118
-129
-127
-120
-115
-102
-88
-90
-97
-99
-109
-115
-113
-111
-118
-125
-115
-115
-148
-115
166
612
943
934
310
-538
-651
-266
-208
-264
-143
-95
-132
-97
-48
-53
-51
-20
0
18
44
67
69
67
83
118
136
127
129
169
197
199
208
208
194
166
120
69
20
-25
-53
-60
-76
-76
-60
-60
-60
-46
-27
-13
4
13
18
32
37
41
55
57
53
46
37
39
41
20
6
20
27
13
-2
-13
-16
-18
-16
-25
-37
-39
-39
-44
-34
-16
0
13
30
27
18
13
4
4
13
2
-18
-20
-16
-25
-11
204
674
1066
1039
433
-419
-651
-269
-132
-192
-76
9
-23
-13
20
25
48
81
88
85
99
127
155
180
206
231
259
292
310
320
336
345
340
336
313
266
208
136
67
23
2
-13
-27
-44
-53
-46
-32
-30
-30
-44
-60
-39
-13
-11
-6
-9
-18
-4
2
-32
-78
-92
-97
-111
-111
-102
-95
-102
-111
-104
-92
-95
-104
-109
-95
-76
-69
-64
-64
-92
-104
-92
-90
-92
-90
-95
-90
-69
-57
-64
-92
-64
201
633
937
897
259
-547
-600
-213
-164
-204
-90
-62
-92
-51
-6
-6
-2
16
37
57
74
90
113
136
162
201
248
285
303
315
329
336
320
285
236
180
125
71
25
-11
-39
-53
-51
-41
-34
-34
-34
-23
-6
4
13
25
32
32
30
39
32
-9
-41
-37
-41
-55
-53
-55
-76
-88
-78
-69
-71
-74
-71
-67
-51
-39
-39
-30
-6
4
-2
-4
-4
-4
2
9
13
25
34
30
11
67
327
693
957
941
354
-382
-415
-81
-64
-113
-20
0
-23
16
41
34
51
69
81
92
106
122
143
169
194
218
248
282
310
333
343
340
336
322
292
234
173
120
62
16
-4
-18
-39
-64
-78
-62
-46
-46
-44
-32
-20
-9
2
6
-9
-48
-60
-37
-30
-48
-64
-78
-95
-99
-95
-90
-85
-81
-67
-55
-67
-92
-104
-106
-118
-129
-127
-120
-113
-102
-111
-115
48
405
739
911
637
-160
-640
-373
-141
-204
-146
-57
-85
-90
-57
-55
-48
-25
-13
-6
-2
6
32
62
83
106
139
178
218
245
250
220
183
178
178
136
78
23
-27
-55
-60
-64
-74
-81
-69
-51
-37
-25
-13
-11
-2
11
13
9
9
11
20
37
37
11
-2
4
9
16
25
25
18
9
20
44
57
62
64
64
67
71
64
46
25
13
11
9
16
23
4
-32
13
278
644
930
948
378
-410
-503
-129
-64
-113
-11
20
-4
27
55
46
51
69
85
97
90
67
76
115
146
169
194
220
245
252
245
245
248
238
218
180
129
69
6
-30
-46
-57
-48
-37
-37
-30
-18
-9
6
16
18
25
32
39
48
51
51
57
57
55
67
62
48
46
53
53
44
20
-4
-4
-2
-4
2
11
18
27
39
60
74
64
48
32
20
25
27
18
9
9
-2
-30
-41
109
452
781
897
512
-310
-672
-333
-134
-197
-122
-57
-109
-109
-60
-53
-46
-23
-11
4
27
44
57
81
104
132
157
183
206
222
227
236
243
234
211
178
139
99
57
16
-9
-20
-30
-25
-11
-2
-2
2
16
32
39
41
39
41
51
57
60
60
57
53
55
64
67
57
51
60
60
46
39
34
0
-20
-4
9
6
9
4
-6
-23
-34
-23
-13
-20
-6
25
30
2
-27
-44
-48
-48
-41
-37
-44
-46
-44
-48
62
394
758
953
758
-11
-619
-415
-115
-166
-132
-20
-32
-44
-9
0
2
30
53
57
60
76
102
125
141
155
173
199
224
245
259
257
245
234
220
204
183
141
83
41
18
2
-13
-27
-27
-16
-13
-30
-41
-67
-92
-74
-44
-46
-48
-39
-39
-34
-23
-16
-16
-13
-11
-11
-11
-20
-44
-76
-85
-71
-57
-51
-48
-51
-51
-48
-46
-25
-2
-13
-44
-53
-57
-67
-67
-67
-69
-55
-41
-46
-71
-16
301
790
1083
904
153
-612
-584
-208
-171
-180
-60
-32
-60
-20
16
11
23
46
57
67
78
71
78
106
134
164
199
220
234
248
255
262
262
229
183
150
113
48
-20
-95
-146
-155
-153
-146
-129
-122
-109
-83
-76
-64
-46
-37
-30
-13
-11
-16
-9
-6
-4
6
11
9
6
4
2
-6
-16
-4
4
-13
-20
-9
-13
-37
-51
-60
-60
-53
-44
-39
-37
-30
-27
-37
64
422
848
1018
725
-76
-654
-426
-125
-164
-120
0
-13
-30
13
27
32
53
51
20
4
27
64
85
104
129
157
185
218
241
248
245
241
245
243
213
160
104
55
23
6
-13
-32
-34
-25
-11
2
13
16
16
11
11
23
32
30
27
34
41
46
53
44
34
39
44
34
37
51
41
13
18
46
34
-16
-60
-71
-71
-71
-67
-69
-71
-57
-57
-83
2
303
658
881
742
32
-584
-433
-125
-143
-122
-20
-46
-92
-62
-30
-27
-11
2
2
16
48
71
92
111
127
150
180
206
227
234
220
204
206
204
176
134
85
44
23
4
-9
-16
-23
-16
0
13
20
20
13
-2
-4
11
16
6
9
20
27
34
37
30
25
20
9
-2
2
13
20
23
41
69
69
53
44
41
44
39
30
30
32
25
9
-23
9
252
603
858
802
155
-554
-505
-155
-139
-148
-48
-53
-85
-48
-25
-25
-11
4
16
30
46
67
85
102
125
150
173
197
213
220
220
194
160
155
143
99
60
25
-9
-32
-44
-48
-48
-57
-64
-53
-41
-32
-18
-9
-4
0
2
11
20
20
23
27
27
27
34
39
37
30
27
34
34
23
13
0
-16
-9
9
25
41
37
18
6
11
16
18
23
30
41
44
27
32
204
549
867
997
637
-208
-635
-322
-118
-218
-187
-118
-143
-136
-95
-90
-90
-71
-62
-51
-39
-39
-27
-4
16
41
69
90
106
113
115
118
120
118
97
67
32
-6
-41
-69
-99
-122
-127
-120
-109
-99
-97
-102
-95
-81
-67
-64
-78
-85
-74
-62
-57
-51
-69
-106
-99
-69
-62
-69
-69
-60
-44
-25
-20
-23
-25
-23
-11
4
20
6
-16
2
39
37
23
23
18
18
25
25
30
34
23
4
88
401
816
1076
943
218
-498
-422
-81
-97
-120
-20
-16
-39
-4
6
-2
11
32
48
62
62
69
95
122
146
164
173
180
197
208
215
213
199
194
187
162
125
85
39
4
-9
-18
-25
-41
-69
-74
-55
-30
-4
4
-16
-37
-27
-11
-11
-16
-18
-20
-18
-18
-20
-18
-9
-4
-6
0
11
13
6
2
9
34
51
48
57
71
76
71
64
57
60
71
78
71
74
83
74
74
287
770
1148
1071
410
-463
-649
-269
-187
-264
-139
-76
-118
-95
-64
-69
-48
-18
-9
6
27
48
69
90
111
120
111
111
125
129
132
132
132
134
115
78
34
-9
-53
-83
-99
-122
-136
-125
-113
-97
-74
-57
-53
-46
-25
-11
-6
6
16
13
13
20
23
18
20
20
20
23
18
6
-2
-2
6
23
46
62
53
39
39
44
51
51
48
55
69
74
46
46
273
744
1106
1041
394
-452
-609
-222
-120
-180
-95
-71
-134
-139
-111
-106
-95
-76
-67
-44
-11
11
34
55
78
111
143
171
194
208
208
208
211
211
192
150
90
39
6
-18
-41
-64
-74
-62
-51
-44
-44
-53
-44
-16
0
9
18
16
16
32
41
46
48
37
27
37
46
46
39
27
27
46
62
64
71
85
88
85
85
71
34
4
6
18
23
23
4
-25
69
412
809
1013
781
-37
-679
-482
-166
-211
-194
-88
-95
-99
-51
-41
-55
-37
-13
-2
16
34
48
60
83
106
120
120
106
109
132
141
136
136
120
88
53
18
-16
-46
-71
-83
-83
-76
-67
-57
-51
-39
-25
-9
4
11
11
18
30
39
44
34
2
-13
-2
13
11
6
9
11
13
16
16
20
37
44
48
67
62
18
4
11
6
9
23
25
30
39
46
25
25
215
568
865
955
531
-294
-600
-255
-99
-166
-85
-27
-62
-44
-6
-6
-2
16
30
41
55
71
90
109
132
160
183
206
224
234
238
238
231
224
206
164
95
25
-23
-46
-62
-69
-64
-57
-53
-46
-34
-25
-11
2
6
11
13
23
39
44
41
30
2
-16
0
11
4
0
0
6
16
9
-2
-6
-2
9
16
11
6
11
20
37
55
62
69
81
78
76
74
71
69
69
67
64
69
69
44
53
257
591
862
946
507
-315
-577
-215
-88
-180
-113
-60
-90
-67
-23
-20
-23
-9
6
25
46
64
71
85
115
148
176
192
173
143
153
173
169
160
143
111
74
27
-23
-69
-118
-146
-132
-113
-102
-95
-95
-85
-57
-41
-32
-25
-23
-18
-4
9
20
23
16
18
30
37
41
39
32
37
48
53
55
53
41
39
53
48
25
9
11
23
30
34
32
25
20
20
30
39
44
46
41
25
6
-6
-13
-13
-16
-16
-4
6
-4
-27
60
350
693
923
814
109
-561
-436
-95
-106
-111
-18
-23
-32
11
18
-13
-27
-9
11
27
46
64
81
104
129
157
183
201
213
224
229
229
220
201
185
157
113
71
20
-30
-46
-46
-55
-48
-30
-27
-23
-11
2
11
16
23
30
37
41
44
46
51
55
55
53
51
48
48
44
27
13
11
9
9
6
-6
-16
-25
-37
-37
-34
-34
-27
-30
-41
-44
-34
-27
-20
-37
-64
-46
-11
-23
-44
-46
-39
-25
-18
-20
-23
-25
-32
-34
92
454
858
1039
732
-104
-640
-373
-99
-153
-102
-4
-30
-34
-4
-37
-51
-4
16
13
32
53
69
95
120
139
157
180
199
206
211
206
190
187
190
169
132
83
23
-23
-44
-55
-76
-88
-92
-90
-78
-57
-53
-64
-71
-64
-57
-55
-64
-106
-148
-157
-162
-173
-185
-206
-213
-204
-194
-183
-178
-180
-171
-164
-180
-183
-166
-173
-176
-146
-118
-111
-85
-55
-51
-57
-60
-48
-37
-39
-37
-16
4
18
9
27
276
756
1113
1032
359
-480
-584
-166
-74
-122
2
53
16
53
95
92
99
115
122
143
171
190
199
211
241
282
315
340
352
352
364
378
366
329
289
241
187
136
88
34
-32
-78
-83
-92
-115
-122
-111
-102
-95
-85
-78
-78
-83
-85
-81
-71
-69
-74
-71
-67
-71
-71
-67
-62
-69
-88
-97
-76
-60
-62
-62
-46
-20
0
-2
-18
-30
-20
-4
4
11
20
27
16
16
215
663
1048
1085
575
-276
-570
-204
-34
-92
-4
62
20
20
53
60
71
95
97
71
57
85
118
127
122
99
99
143
178
187
199
204
208
206
180
136
85
32
-11
-37
-55
-69
-76
-83
-85
-83
-69
-48
-32
-25
-11
2
11
18
13
9
18
25
9
-11
-23
-37
-48
-51
-55
-51
-41
-39
-25
-6
-4
-9
-13
-23
-23
-16
-27
-37
-25
-11
-20
-32
92
447
828
1018
781
6
-552
-350
-90
-129
-83
9
-16
-25
18
37
41
60
62
39
30
55
85
102
127
160
176
187
220
243
241
234
231
229
213
176
125
67
25
4
-6
-20
-32
-37
-27
-11
-2
4
9
11
25
39
51
57
55
57
64
64
53
44
37
30
27
34
37
39
41
44
53
78
97
97
62
16
6
20
23
11
2
-6
-20
-46
-11
231
612
916
955
410
-394
-549
-204
-125
-169
-62
-30
-97
-106
-71
-55
-46
-30
-20
-16
6
37
62
85
104
127
160
197
222
236
236
229
224
220
199
150
90
39
0
-37
-64
-88
-127
-143
-120
-99
-92
-83
-76
-67
-53
-34
-23
-16
-16
-27
-48
-48
-32
-34
-41
-37
-30
-25
-20
-20
-25
-25
-25
-23
-20
-30
-44
-37
-18
-9
-4
2
2
-11
-27
-32
-48
-88
-97
-78
-71
-76
-92
-64
169
563
895
955
405
-456
-654
-282
-190
-245
-141
-99
-136
-120
-97
-99
-85
-57
-44
-30
-11
11
30
53
85
118
146
176
199
218
229
224
199
178
160
129
83
34
-4
-32
-48
-53
-55
-55
-48
-48
-51
-39
-20
-9
-2
6
16
27
39
39
44
51
53
60
67
62
46
16
0
16
27
20
20
27
34
37
41
46
48
46
51
55
46
41
46
46
48
62
67
62
62
67
71
74
71
62
53
60
76
83
76
48
2
-23
-27
-34
-32
-30
-32
-30
-18
-20
-39
30
347
797
1087
937
171
-558
-466
-115
-129
-136
-18
-13
-48
-9
20
27
44
44
41
71
102
109
120
118
102
132
180
201
206
197
173
166
166
164
157
118
67
34
4
-27
-55
-78
-95
-88
-74
-67
-67
-62
-44
-23
-9
4
2
-18
-25
-4
13
16
11
2
4
18
27
20
0
-4
2
-11
-18
-2
2
-20
-34
-23
-23
-41
-46
-37
-32
-30
-30
-25
-20
-20
-27
-16
16
34
30
30
41
46
41
32
18
11
18
25
30
16
-16
-32
62
424
932
1185
885
27
-621
-424
-83
-120
-102
32
41
20
60
74
62
55
57
76
106
122
136
160
187
208
222
241
280
315
331
343
345
336
322
289
234
176
120
67
20
-6
-16
-25
-44
-48
-39
-44
-48
-32
-20
-20
-16
-13
-13
-20
-30
-34
-46
-57
-53
-53
-55
-55
-55
-55
-48
-48
-53
-41
-34
-41
-41
-53
-81
-78
-57
-53
-51
-44
-37
-39
-62
-85
-76
-64
-48
-27
-20
-16
-6
-11
-13
-13
-16
-13
2
16
23
34
30
6
104
466
902
1134
920
118
-565
-422
-102
-127
-113
-4
-13
-37
9
32
25
39
53
46
48
69
90
97
113
146
183
211
229
238
252
262
257
236
211
166
95
27
-25
-74
-120
-169
-222
-243
-229
-234
-269
-292
-280
-259
-243
-227
-224
-227
-213
-187
-171
-162
-153
-150
-146
-132
-118
-111
-104
-102
-102
-88
-69
-60
-55
-57
-53
-32
-18
-11
-4
-4
0
13
25
34
41
32
18
20
32
44
48
46
48
55
60
62
67
69
85
99
104
120
139
129
115
113
118
122
120
115
120
129
120
81
157
475
858
1117
983
204
-512
-396
-76
-115
-127
-34
-57
-90
-51
-32
-37
-25
-16
-13
0
25
44
57
74
97
127
160
194
222
243
252
257
262
264
248
194
125
74
41
9
-20
-37
-41
-39
-27
-23
-23
-23
-11
0
9
18
25
32
39
51
62
67
64
69
74
76
83
88
78
55
46
46
37
34
44
51
51
60
64
37
6
16
32
30
23
0
-23
-13
2
2
6
9
16
25
23
25
34
37
39
44
44
41
37
34
41
60
74
78
74
67
64
57
44
39
44
46
51
51
27
-16
4
231
591
920
1052
584
-296
-586
-238
-134
-227
-143
-95
-141
-143
-134
-143
-129
-106
-90
-69
-48
-32
-11
11
44
76
109
136
148
148
166
194
206
201
194
178
150
106
55
11
-20
-39
-39
-30
-23
-23
-30
-32
-20
-2
6
6
13
30
46
55
64
69
69
78
88
95
99
97
90
95
104
109
111
106
102
106
115
122
122
113
109
113
102
83
85
83
78
90
104
106
111
104
102
115
125
125
125
120
120
129
139
143
136
111
90
97
118
134
118
76
51
48
32
13
2
-11
-13
0
11
11
-11
-37
76
412
802
1087
969
183
-507
-354
-51
-109
-109
-4
-13
-25
20
39
30
41
60
69
83
97
104
115
129
134
129
125
122
134
164
192
204
208
208
197
169
134
90
39
-11
-44
-60
-60
-62
-67
-71
-67
-57
-48
-37
-27
-23
-23
-18
-4
2
-6
-18
-18
-11
-6
-18
-55
-76
-64
-55
-57
-57
-55
-53
-55
-57
-53
-41
-37
-39
-37
-27
-20
-25
-20
-9
-6
0
0
-9
-11
-16
-32
-46
-62
-88
-90
-78
-81
-85
-71
-46
-25
-6
2
2
-6
-18
-25
-23
-9
0
0
6
23
20
2
132
531
983
1161
844
2
-586
-359
-71
-125
-90
23
13
-2
39
62
62
78
90
69
55
81
106
118
143
171
192
224
264
294
313
322
327
331
331
322
287
229
169
106
55
18
-11
-37
-57
-60
-44
-37
-37
-25
-2
13
23
30
37
44
55
64
64
62
60
60
62
64
62
62
62
57
60
71
67
46
32
41
48
51
57
57
51
55
67
71
62
44
41
51
46
27
6
-25
-44
-20
4
-4
-16
-23
-34
-41
-41
-37
-44
-76
-106
-102
-97
-115
-55
231
654
939
862
190
-586
-596
-220
-192
-227
-102
-78
-122
-85
-51
-57
-44
-23
-30
-16
9
23
44
62
71
92
127
150
164
173
180
183
185
180
164
132
81
30
-11
-48
-81
-104
-120
-127
-125
-111
-95
-92
-90
-67
-44
-32
-23
-18
-13
0
13
16
-4
-39
-57
-51
-41
-34
-30
-34
-32
-27
-37
-53
-53
-44
-37
-23
-11
-2
2
4
9
16
20
20
18
20
30
48
62
71
88
104
92
71
53
32
23
30
34
27
23
0
-13
148
503
830
992
674
-160
-593
-282
-76
-150
-85
-9
-41
-34
6
9
6
25
39
48
64
83
97
104
115
136
164
183
176
180
208
218
192
164
153
146
118
71
27
-6
-37
-53
-62
-67
-67
-64
-60
-44
-27
-20
-16
-6
4
13
16
11
6
9
13
23
32
32
34
37
39
44
48
51
48
51
53
57
62
57
37
4
2
20
25
20
18
13
13
20
32
51
55
48
57
74
69
48
34
37
46
53
53
53
32
-6
0
183
514
828
985
656
-171
-598
-299
-104
-199
-150
-69
-97
-102
-88
-106
-111
-104
-115
-120
-115
-109
-90
-64
-41
-20
-2
20
51
83
111
120
113
102
106
109
85
46
-2
-39
-60
-67
-71
-78
-83
-76
-57
-39
-25
-13
-16
-20
-6
9
18
23
20
23
32
44
53
53
39
20
4
6
20
23
16
20
32
41
48
41
34
44
51
55
57
32
2
2
0
-18
-13
0
4
20
39
57
76
76
60
48
53
64
71
67
67
76
81
64
99
336
714
1022
1087
565
-273
-459
-88
4
-53
46
74
23
44
83
83
85
99
102
104
109
111
125
139
150
155
143
132
136
148
150
146
141
141
132
115
95
62
18
-18
-48
-71
-90
-111
-118
-106
-127
-153
-134
-111
-111
-102
-88
-78
-74
-71
-67
-64
-90
-113
-102
-88
-88
-78
-67
-62
-57
-51
-39
-34
-39
-30
-13
-13
-13
-6
-6
-4
0
-9
-4
16
30
37
55
67
57
48
51
48
39
34
23
18
20
23
23
132
505
967
1155
834
-6
-605
-378
-76
-120
-81
20
-6
-20
23
39
46
64
74
60
39
53
83
97
111
120
113
120
160
183
180
180
187
183
164
139
111
60
2
-37
-69
-113
-157
-183
-176
-157
-148
-139
-129
-118
-102
-85
-69
-60
-60
-53
-41
-34
-30
-27
-37
-60
-67
-48
-39
-41
-44
-44
-30
-16
-11
-13
-16
-16
-11
-9
0
16
25
30
34
34
32
30
23
27
51
64
62
39
53
285
735
1092
1108
542
-354
-605
-204
-67
-132
-25
27
-18
13
60
44
30
41
55
74
97
115
120
132
157
190
218
241
257
266
269
273
276
266
248
213
153
97
62
25
-27
-71
-78
-69
-74
-83
-92
-106
-118
-111
-102
-122
-157
-162
-141
-132
-125
-118
-120
-120
-111
-102
-92
-88
-88
-85
-74
-62
-55
-55
-60
-60
-55
-39
-32
-53
-71
-51
-20
-20
-39
-51
-55
-51
-39
-20
-6
-2
-4
-18
4
224
619
953
1050
605
-248
-545
-183
-34
-106
-27
11
-37
-16
25
20
25
51
64
71
81
83
92
118
143
160
183
208
222
236
250
248
236
231
222
204
178
136
95
64
39
23
11
4
9
23
30
34
44
44
37
32
27
11
-30
-64
-69
-71
-88
-90
-88
-92
-85
-78
-76
-76
-76
-74
-60
-55
-55
-51
-53
-53
-44
-39
-39
-44
-55
-44
-11
2
-11
-25
-39
-48
-37
-18
-13
-18
-16
-11
-11
106
431
781
1001
844
97
-514
-336
-44
-85
-60
44
32
16
48
57
62
85
99
102
109
122
143
160
162
162
178
208
234
248
255
250
236
229
227
218
187
132
60
20
4
-11
-25
-34
-39
-25
-9
0
9
4
-16
-18
-2
9
9
4
-2
-2
6
6
-20
-60
-74
-60
-62
-78
-83
-90
-95
-88
-83
-78
-78
-92
-97
-88
-78
-67
-51
-46
-39
-13
6
9
-9
-27
-23
-11
-13
-18
-16
-11
-13
-25
41
313
681
964
964
350
-422
-454
-99
-69
-97
13
32
0
30
51
48
64
81
67
34
16
30
51
71
88
102
118
143
169
180
176
173
169
162
160
155
129
83
44
18
4
-9
-23
-25
-13
-4
4
13
20
27
34
44
51
48
41
44
46
32
27
32
30
23
13
4
11
6
-9
-16
-20
-34
-41
-39
-41
-48
-51
-44
-41
-51
-53
-41
-27
-27
-27
-4
20
6
-39
-67
-53
-48
-62
-57
-41
-30
-46
-102
-46
299
767
1039
892
150
-605
-545
-176
-171
-171
-39
-20
-41
-9
9
9
27
48
57
74
95
102
113
143
164
164
178
201
215
224
234
234
224
220
220
204
166
127
88
41
16
2
-9
-23
-53
-81
-67
-39
-27
-23
-20
-11
-2
2
0
-25
-67
-83
-71
-67
-74
-102
-148
-183
-173
-155
-162
-169
-164
-160
-153
-143
-132
-122
-120
-106
-78
-53
-53
-67
-67
-62
-60
-46
-30
-32
-30
-18
-34
-34
190
672
1057
1043
456
-405
-635
-252
-115
-164
-48
30
-2
4
37
41
60
85
92
92
111
136
157
180
204
220
234
257
285
301
285
248
234
243
236
208
166
111
62
32
9
-13
-32
-44
-37
-20
-6
2
-18
-46
-32
0
4
6
13
9
4
0
-4
-2
-9
-27
-46
-64
-81
-85
-85
-90
-95
-90
-83
-85
-90
-78
-60
-48
-34
-16
-16
-30
-27
-20
-18
-18
-16
-11
0
9
-2
-4
164
556
925
1073
709
-173
-647
-329
-99
-173
-104
-13
-46
-41
4
13
16
32
44
57
78
97
111
132
157
176
194
222
231
213
204
208
201
194
169
115
60
18
-20
-44
-69
-92
-95
-90
-85
-74
-60
-48
-39
-32
-18
-13
-44
-64
-46
-32
-34
-27
-20
-20
-25
-34
-32
-27
-39
-48
-51
-55
-76
-95
-109
-125
-132
-127
-125
-118
-102
-85
-76
-62
-37
-25
-34
-39
-37
-32
-25
-20
-13
0
11
2
-11
102
419
783
1032
881
120
-510
-343
-55
-102
-88
-2
-44
-67
-13
4
0
16
32
44
64
85
97
113
134
160
190
218
241
250
250
252
259
252
231
208
178
143
111
71
20
-13
-30
-51
-64
-53
-48
-51
-37
-16
-2
6
6
4
16
34
46
46
41
37
41
46
37
25
16
11
6
4
0
-18
-37
-44
-53
-57
-48
-41
-53
-55
-41
-34
-37
-46
-81
-106
-83
-51
-41
-48
-60
-62
-53
-53
-57
-55
-53
-48
-27
-9
0
-6
-32
39
322
686
974
962
320
-449
-470
-136
-122
-150
-53
-34
-44
-2
20
11
20
44
60
78
97
106
118
143
173
197
220
238
248
259
269
269
262
255
227
194
166
132
88
41
13
11
9
0
-23
-51
-51
-32
-25
-16
-2
0
2
11
18
13
-18
-53
-53
-41
-48
-57
-69
-83
-99
-111
-120
-129
-134
-129
-122
-120
-132
-164
-178
-164
-160
-162
-148
-139
-146
-146
-139
-132
-125
-125
-125
-115
-111
-104
-90
-85
-88
-78
-69
-62
-55
-53
-55
-39
-18
-11
2
23
30
25
18
18
23
34
46
55
62
60
37
51
278
709
1076
1166
679
-199
-491
-132
-4
-83
-11
16
-27
0
23
6
11
37
57
69
81
99
106
102
120
162
185
199
224
243
245
229
215
215
204
176
146
111
55
-4
-46
-69
-76
-81
-92
-99
-95
-88
-76
-62
-55
-46
-32
-18
-13
-11
-9
-4
-4
-2
11
18
13
9
9
18
32
34
23
18
27
39
46
46
46
44
41
51
55
41
16
-11
-18
0
9
4
2
0
-11
-27
-27
-9
-2
-2
18
51
55
41
30
27
34
41
53
69
69
62
51
69
306
779
1145
1115
521
-324
-535
-173
-99
-180
-51
23
-23
-18
2
-4
6
27
20
13
16
16
32
62
81
95
109
127
155
176
185
176
157
146
125
83
44
-6
-71
-115
-139
-157
-176
-187
-197
-190
-180
-192
-206
-220
-222
-197
-171
-160
-150
-136
-127
-115
-99
-90
-85
-85
-81
-71
-53
-44
-51
-55
-44
-27
-20
-16
-9
-2
4
13
23
27
32
37
46
53
62
64
60
55
57
64
78
95
99
106
122
127
127
122
111
104
99
92
97
104
99
83
81
241
607
960
1122
814
-27
-526
-271
-83
-173
-113
-30
-62
-60
-23
-23
-20
0
9
13
0
-6
18
46
67
90
111
139
173
194
206
213
211
201
194
173
136
88
41
11
-11
-34
-41
-41
-48
-46
-30
-20
-9
2
11
27
41
46
51
57
57
57
46
41
48
48
44
48
55
55
55
55
53
64
69
69
74
64
41
41
53
53
53
51
51
57
64
60
34
2
-2
16
20
13
-18
-44
-16
18
13
0
-6
-6
4
18
27
27
25
13
-6
51
303
651
930
969
405
-401
-510
-160
-118
-169
-67
-34
-67
-41
-20
-34
-32
-9
4
4
13
39
69
92
113
132
157
185
213
234
245
236
213
185
162
143
104
44
0
-20
-37
-46
-51
-60
-60
-46
-32
-30
-39
-41
-30
-9
6
20
23
16
18
37
44
44
23
-11
-13
2
9
16
13
6
13
27
37
41
39
34
44
53
60
64
62
51
44
46
53
55
48
41
44
48
62
81
83
81
99
122
118
99
85
67
48
44
57
64
57
46
30
113
405
770
1046
1001
327
-417
-387
-69
-90
-111
0
0
-44
-23
-13
-34
-23
2
4
9
20
30
51
76
85
71
78
113
148
169
178
176
166
155
148
129
85
30
-23
-67
-88
-92
-97
-97
-92
-90
-81
-64
-55
-46
-34
-32
-30
-20
-16
-11
-6
-16
-39
-53
-81
-99
-83
-76
-74
-64
-60
-60
-51
-51
-60
-67
-62
-53
-44
-41
-34
-32
-30
-27
-25
-20
-13
-18
-32
-23
-2
2
-2
6
25
32
16
-4
-20
-51
-71
-60
-53
-55
-48
-60
-30
238
714
1050
981
317
-507
-596
-206
-141
-185
-67
-25
-64
-41
-11
-20
-16
2
4
0
-13
-30
-13
25
53
76
104
129
162
194
199
183
173
169
162
143
99
46
4
-41
-81
-88
-88
-97
-97
-92
-83
-64
-37
-20
-18
-9
6
23
27
27
27
27
39
48
51
51
44
32
27
37
46
39
4
-18
-4
6
0
2
6
6
23
41
53
67
69
57
57
62
62
60
37
23
44
64
57
37
115
473
950
1171
895
78
-579
-410
-69
-92
-71
48
37
20
69
85
83
99
104
109
136
157
171
185
199
215
241
269
292
299
292
287
280
262
236
194
125
62
13
-30
-67
-99
-125
-132
-127
-125
-141
-162
-150
-125
-111
-102
-115
-136
-127
-102
-92
-85
-81
-83
-99
-115
-109
-92
-90
-88
-78
-83
-88
-83
-74
-71
-69
-60
-48
-34
-20
-9
4
23
37
30
23
20
23
32
46
48
51
57
46
41
204
577
941
1110
802
-39
-521
-236
-20
-90
-23
64
37
39
74
76
78
97
113
120
129
146
162
180
199
218
245
278
299
313
301
262
241
238
197
141
104
57
0
-53
-99
-118
-125
-141
-143
-136
-141
-146
-134
-122
-111
-97
-90
-85
-78
-71
-64
-57
-53
-53
-53
-44
-37
-34
-32
-30
-30
-25
-16
-11
-4
-9
-18
-13
-6
-6
-6
-2
11
30
46
55
67
67
57
51
55
60
55
55
64
78
83
64
60
236
589
918
1090
753
-134
-605
-292
-83
-171
-104
-25
-64
-53
0
11
13
25
34
53
78
97
113
127
143
173
211
238
255
269
273
276
280
276
255
213
164
127
92
51
-4
-67
-95
-78
-69
-67
-57
-53
-48
-37
-32
-27
-23
-30
-37
-34
-34
-41
-53
-60
-60
-53
-51
-51
-57
-64
-60
-46
-41
-53
-78
-95
-90
-90
-85
-71
-71
-85
-78
-62
-51
-46
-64
-85
-62
-20
-6
-16
-30
-37
-25
-11
2
9
9
11
6
4
134
461
816
1046
872
97
-514
-333
-57
-102
-67
32
16
9
48
55
53
74
95
102
109
122
143
164
183
206
229
250
273
294
306
306
294
282
276
257
220
160
78
6
-23
-30
-46
-53
-46
-41
-34
-20
-13
-9
0
9
16
20
2
-34
-39
-30
-30
-34
-44
-57
-74
-83
-74
-71
-78
-74
-67
-71
-76
-78
-81
-81
-74
-69
-60
-53
-51
-48
-41
-39
-37
-30
-25
-9
4
11
30
46
34
20
23
23
23
25
32
37
41
34
20
104
440
867
1087
890
118
-591
-468
-111
-134
-136
-6
-4
-32
11
39
41
55
64
74
97
113
118
120
115
127
160
190
206
204
187
190
201
190
166
141
106
64
27
-11
-55
-88
-95
-90
-95
-99
-102
-104
-99
-83
-74
-81
-95
-104
-106
-104
-92
-90
-104
-120
-120
-115
-109
-109
-122
-139
-148
-148
-157
-183
-194
-178
-169
-176
-171
-155
-160
-162
-139
-113
-102
-90
-78
-60
-46
-44
-46
-48
-44
-32
-18
-4
13
6
-20
76
459
946
1166
881
46
-619
-436
-83
-118
-125
-27
-32
-39
11
37
32
37
62
85
102
125
139
150
185
227
248
271
296
313
324
340
350
340
313
276
218
164
115
44
-25
-53
-62
-83
-95
-85
-74
-78
-78
-67
-57
-62
-69
-60
-48
-39
-37
-37
-39
-39
-32
-30
-34
-37
-30
-27
-30
-34
-44
-48
-48
-46
-30
-16
-6
4
20
27
27
27
11
-23
-37
-23
-4
2
9
6
-11
48
368
837
1122
983
248
-503
-452
-83
-81
-109
16
34
2
32
39
25
44
62
71
95
113
122
141
171
201
220
215
222
252
271
273
276
264
245
222
173
111
60
20
-2
-23
-57
-81
-74
-69
-64
-48
-32
-34
-39
-27
-9
-2
-13
-18
-27
-39
-32
-27
-44
-55
-81
-111
-104
-85
-90
-97
-102
-102
-90
-83
-76
-64
-60
-60
-32
-9
-16
-25
-32
-51
-51
-34
-27
-30
-23
-16
-27
20
296
714
1025
1027
429
-391
-500
-134
-76
-115
6
41
2
27
57
55
60
67
67
76
97
118
141
164
185
208
243
280
303
315
317
306
296
287
264
222
162
97
53
32
20
4
-37
-78
-74
-51
-41
-37
-39
-44
-23
2
13
9
-16
-39
-37
-51
-78
-78
-71
-83
-88
-83
-83
-102
-115
-109
-97
-92
-83
-81
-88
-90
-83
-76
-67
-57
-53
-46
-39
-30
-18
-20
-37
-39
-27
-16
-4
-2
-4
6
13
0
69
350
709
992
992
368
-405
-431
-76
-51
-78
32
51
9
34
64
69
81
88
81
90
113
132
148
150
132
136
178
208
206
176
148
146
155
148
125
85
32
-13
-48
-69
-81
-90
-95
-95
-88
-76
-64
-64
-62
-64
-64
-51
-44
-44
-37
-25
-25
-18
-11
-16
-18
-16
-16
-23
-34
-46
-48
-55
-64
-69
-81
-102
-111
-111
-109
-104
-104
-104
-102
-99
-95
-95
-106
-104
-90
-81
-71
-60
-62
-62
-53
-48
-41
-20
-20
-34
-18
9
16
9
0
-2
4
13
23
16
-9
-9
-4
-9
122
442
788
1048
885
95
-503
-299
-32
-90
-62
30
11
6
51
64
64
81
97
104
118
136
157
173
192
213
241
273
301
317
324
327
322
320
308
278
218
155
115
83
51
27
11
4
13
25
27
25
18
9
-4
-16
-18
-18
-30
-37
-39
-34
-32
-48
-83
-97
-85
-74
-74
-76
-76
-78
-83
-78
-67
-69
-71
-57
-44
-34
-25
-25
-27
-16
-2
9
16
13
9
20
34
39
46
46
44
53
64
71
74
69
67
74
78
69
53
44
53
67
74
95
111
92
74
78
81
81
74
48
39
41
18
-13
32
273
658
997
1080
547
-299
-477
-111
-32
-95
9
41
-18
-4
34
37
34
20
-2
4
27
46
60
67
69
90
113
132
153
169
171
173
173
173
162
132
85
39
2
-34
-64
-85
-99
-102
-97
-104
-111
-102
-92
-83
-60
-37
-41
-51
-32
-11
-6
2
9
-2
-4
-2
-16
-30
-25
-16
-11
-6
2
4
4
11
16
18
30
44
46
30
20
34
44
41
48
57
51
53
67
44
-2
-6
9
9
13
27
37
48
64
78
83
67
48
51
64
67
64
78
90
76
39
122
498
967
1168
872
27
-623
-449
-143
-183
-164
-53
-55
-64
-23
-11
-18
-6
4
-4
-9
20
39
48
85
125
148
176
213
236
255
276
271
248
238
224
176
113
57
16
-16
-44
-67
-85
-85
-76
-64
-55
-64
-95
-88
-46
-34
-34
-25
-18
-11
-2
2
-4
-30
-60
-57
-41
-60
-81
-74
-64
-60
-48
-34
-32
-32
-27
-13
-2
-2
-6
-9
0
23
37
37
48
51
32
25
27
27
30
34
39
41
51
46
11
37
327
802
1085
941
229
-558
-570
-178
-141
-178
-64
-37
-64
-20
9
-2
2
18
34
53
71
78
64
69
111
153
183
215
238
255
271
262
241
229
201
146
88
37
-6
-39
-67
-81
-81
-81
-78
-69
-67
-57
-30
-9
-4
-6
-16
-25
-13
2
2
0
2
11
13
18
23
13
2
6
16
20
25
23
23
30
34
32
32
30
37
53
62
69
85
90
83
76
76
78
78
71
71
78
85
83
64
134
436
823
1064
969
255
-524
-477
-111
-115
-132
-16
-13
-41
-6
4
-6
4
16
11
13
25
30
34
48
51
53
92
132
146
160
166
166
169
155
109
57
11
-34
-71
-102
-122
-125
-129
-127
-113
-104
-99
-85
-69
-57
-46
-39
-32
-23
-16
-9
-16
-46
-60
-41
-37
-41
-48
-74
-90
-85
-95
-95
-81
-76
-71
-62
-62
-67
-67
-64
-46
-23
-23
-27
-34
-57
-60
-57
-69
-71
-64
-60
-55
-67
-90
-99
-104
11
338
693
920
760
-9
-635
-452
-153
-194
-173
-71
-81
-88
-41
-27
-27
-6
11
27
48
64
81
99
127
162
194
222
245
266
282
294
296
285
266
234
183
120
67
18
-25
-41
-41
-51
-62
-69
-81
-88
-74
-60
-53
-53
-55
-44
-30
-25
-23
-39
-71
-71
-51
-55
-81
-97
-90
-74
-62
-55
-62
-74
-71
-53
-41
-34
-30
-39
-41
-20
6
20
25
34
55
67
62
57
60
53
55
69
83
92
92
69
67
245
600
934
1115
795
-53
-503
-192
20
-57
-4
71
48
60
104
99
88
106
127
136
150
162
164
187
218
243
269
287
301
320
333
333
315
280
250
227
185
125
48
-30
-74
-74
-67
-67
-76
-83
-74
-55
-48
-46
-55
-81
-83
-71
-74
-64
-57
-67
-76
-74
-74
-85
-92
-90
-90
-88
-81
-76
-76
-83
-92
-90
-71
-67
-76
-76
-71
-67
-53
-39
-34
-23
2
20
20
9
2
2
9
20
32
32
32
37
18
62
345
758
1034
1004
396
-424
-524
-153
-95
-134
-20
13
-32
-37
-32
-23
-2
16
30
44
57
78
97
125
155
178
208
241
252
264
273
271
262
262
250
220
171
111
57
20
-6
-23
-37
-39
-20
-4
0
4
11
20
34
39
37
34
27
25
39
44
20
0
-11
-27
-32
-27
-30
-34
-37
-46
-69
-85
-97
-113
-109
-85
-71
-62
-41
-27
-30
-32
-32
-37
-41
-57
-81
-74
-46
-34
-53
-39
199
679
1071
1059
454
-424
-637
-231
-92
-162
-57
18
-23
-16
30
41
44
55
71
83
99
122
139
155
180
213
245
269
282
292
306
310
306
303
282
231
180
139
92
41
-2
-18
-18
-34
-57
-60
-51
-44
-37
-20
-4
-13
-44
-55
-39
-25
-20
-27
-55
-67
-53
-48
-53
-69
-97
-113
-111
-109
-118
-141
-166
-162
-136
-113
-102
-111
-136
-148
-141
-129
-122
-122
-122
-111
-106
-120
-11
375
841
1032
705
-143
-730
-496
-204
-255
-204
-76
-92
-115
-71
-46
-41
-16
2
9
27
53
60
57
60
78
115
150
180
208
220
222
220
222
215
187
136
83
37
6
-9
-27
-44
-44
-37
-25
-9
0
6
16
32
46
57
62
55
46
51
60
60
41
6
-2
11
16
16
0
-27
-34
-25
-20
-20
-23
-27
-20
-16
-20
-25
-37
-44
-37
-30
-23
-13
-11
-18
-39
9
301
728
1008
918
234
-531
-519
-160
-139
-157
-39
-23
-51
-9
13
16
37
51
57
76
95
113
134
155
178
204
227
255
278
287
285
273
255
245
227
183
132
88
51
27
18
2
-23
-55
-62
-34
-18
-18
-11
0
9
23
32
32
34
37
41
48
51
39
13
-16
-18
-13
-27
-34
-32
-41
-57
-69
-53
-32
-37
-37
-16
-4
-6
-23
-48
-55
-44
-48
-53
-51
-51
-55
-67
4
287
656
925
906
282
-475
-491
-150
-134
-153
-37
-18
-44
-16
2
6
27
46
55
62
71
92
118
143
162
150
139
169
201
211
213
206
192
187
178
146
97
46
11
-13
-37
-46
-48
-51
-44
-30
-32
-46
-51
-41
-30
-13
0
9
11
6
16
27
34
37
37
32
32
44
51
51
48
46
51
60
60
46
23
16
27
44
62
69
74
85
85
67
53
48
39
27
23
25
18
4
-23
-30
132
477
818
1015
739
-92
-591
-306
-76
-178
-157
-76
-106
-106
-57
-53
-57
-34
-13
2
4
-9
2
37
62
90
122
146
164
183
194
199
201
192
173
153
122
83
41
9
-11
-25
-30
-34
-48
-48
-27
-18
-18
0
18
16
18
27
37
39
39
46
51
46
46
51
46
41
44
44
48
37
-4
-18
4
11
6
13
11
-2
-11
-16
-23
-55
-88
-76
-55
-67
-62
-46
-71
-115
-122
-120
-122
-115
-109
-111
-106
-102
-120
-104
111
484
816
930
466
-394
-649
-276
-150
-236
-166
-118
-146
-122
-92
-88
-74
-55
-46
-27
-2
16
34
53
81
111
146
173
183
194
211
215
208
201
199
176
134
97
69
34
4
-9
-20
-25
-18
-11
-13
-4
16
32
39
27
-9
-41
-44
-34
-30
-32
-27
-20
-6
6
9
0
2
13
16
6
6
2
-4
6
9
-16
-44
-60
-67
-67
-55
-41
-37
-34
-13
2
-4
-9
-6
-25
-25
6
11
4
11
2
-18
83
459
950
1199
909
51
-591
-387
-71
-120
-109
-4
-6
-4
41
46
41
60
78
95
106
113
136
162
155
155
192
222
229
236
259
285
278
257
245
236
206
162
111
32
-34
-53
-64
-81
-81
-78
-81
-62
-30
-13
-11
-6
0
13
34
25
-13
-34
-39
-53
-57
-51
-83
-127
-129
-125
-141
-141
-125
-134
-134
-102
-81
-83
-92
-113
-127
-113
-106
-104
-85
-78
-85
-88
4
361
876
1138
814
-92
-788
-600
-245
-266
-241
-102
-90
-113
-76
-53
-51
-39
-25
-16
9
41
51
51
64
69
76
120
166
183
197
208
213
215
204
171
120
64
18
-23
-55
-67
-76
-92
-83
-60
-51
-37
-18
-9
6
23
25
39
53
46
39
48
51
46
44
44
37
25
25
39
37
27
34
34
16
-16
-48
-60
-46
-37
-37
-34
-32
-34
-41
64
440
902
1094
795
-23
-626
-422
-120
-164
-129
-6
-13
-34
-16
-32
-34
-2
18
30
46
67
92
120
148
176
199
224
262
289
294
292
285
276
255
220
171
118
57
13
0
-4
-13
-20
-25
-16
2
18
25
25
30
48
62
67
71
69
46
30
37
41
41
44
44
51
74
88
81
67
57
51
46
46
51
46
32
23
0
0
199
589
923
1018
552
-327
-640
-287
-146
-215
-120
-48
-95
-95
-53
-44
-37
-16
-32
-64
-48
-6
18
41
62
83
115
155
183
194
173
139
141
148
120
76
30
-18
-51
-69
-76
-78
-88
-111
-129
-115
-90
-83
-81
-67
-51
-32
-13
-6
-9
-6
-4
-11
-11
-11
-16
-13
4
23
27
32
48
57
57
55
48
39
44
55
62
69
76
55
23
129
489
920
1203
1004
139
-540
-345
-48
-118
-106
6
-2
-18
25
25
6
27
48
46
48
53
55
64
85
113
139
162
185
204
204
180
162
160
146
109
60
11
-27
-57
-81
-104
-127
-125
-109
-104
-99
-83
-71
-62
-51
-41
-27
-16
-9
0
6
9
16
23
20
20
20
13
11
16
16
23
37
39
51
64
64
55
20
-11
-6
-6
-18
-4
4
6
20
32
16
-20
57
380
807
1136
1087
336
-459
-398
-46
-71
-104
-13
-25
-44
11
30
16
2
-16
-13
2
11
27
51
62
76
111
148
162
164
166
171
166
153
136
104
55
6
-34
-76
-113
-136
-146
-141
-132
-127
-136
-143
-136
-120
-109
-115
-129
-125
-109
-99
-90
-83
-92
-99
-92
-83
-83
-85
-95
-102
-88
-71
-67
-78
-106
-118
-97
-81
-81
-74
-81
-92
-83
-69
-55
-39
-34
-27
-16
-6
-6
-18
-27
-18
2
16
27
32
25
2
48
338
809
1161
1145
491
-373
-470
-81
-46
-113
13
48
-2
27
55
25
25
51
41
13
16
41
57
78
111
136
153
173
208
231
238
243
236
222
218
199
143
85
46
11
-18
-37
-53
-74
-102
-129
-134
-113
-97
-97
-97
-90
-71
-55
-44
-32
-27
-30
-16
-2
-2
-2
2
-2
0
16
25
16
18
34
41
41
44
41
37
44
57
67
67
76
97
111
97
69
55
53
60
67
71
76
76
51
60
301
765
1131
1131
526
-373
-584
-199
-109
-178
-60
-6
-60
-44
-9
-25
-27
-4
-11
-27
-4
18
20
41
74
95
104
111
136
166
178
173
153
113
92
71
13
-48
-88
-118
-136
-148
-157
-162
-166
-162
-148
-136
-134
-118
-102
-90
-71
-71
-85
-83
-78
-78
-71
-69
-76
-78
-71
-64
-60
-57
-55
-51
-41
-30
-20
-13
-13
-16
-13
-4
6
11
9
4
13
34
32
-2
-46
-69
-69
-69
-60
-46
-67
-120
-150
-20
336
735
994
844
55
-619
-445
-120
-173
-160
-34
-39
-51
0
9
-2
20
46
57
76
90
97
120
150
169
183
208
236
264
287
294
289
280
269
255
215
164
118
74
39
25
23
20
18
9
9
25
39
46
55
60
69
85
95
97
81
41
32
53
60
55
53
39
27
30
34
34
20
4
0
-2
-6
-13
-46
-74
-60
-46
-51
-48
-53
-64
-53
-25
-11
-13
-11
9
20
4
-13
-16
-16
-13
0
11
20
20
-4
18
250
623
955
1094
642
-227
-500
-136
-27
-141
-83
-20
-48
-30
2
-18
-34
-13
11
27
41
44
34
34
62
97
122
150
183
206
220
229
231
224
218
199
157
115
71
32
11
-2
-11
-18
-39
-67
-62
-46
-44
-44
-67
-90
-81
-78
-99
-99
-92
-102
-104
-97
-90
-88
-85
-78
-76
-71
-64
-57
-55
-48
-39
-32
-25
-20
-18
-9
0
4
11
18
18
25
37
37
39
39
34
25
11
6
16
20
20
32
39
39
37
37
44
67
81
76
85
109
115
109
102
97
95
99
102
113
125
109
71
150
440
814
1122
1117
412
-429
-433
-71
-81
-127
-32
-37
-60
-11
9
-2
13
30
39
57
74
88
102
120
146
173
199
218
234
250
252
245
236
215
187
164
127
53
-16
-51
-76
-99
-104
-99
-99
-102
-99
-81
-62
-55
-48
-46
-41
-27
-16
-9
-4
-6
-6
9
16
16
18
13
13
11
4
4
11
6
4
16
20
20
16
-9
-20
-4
4
2
-11
-46
-55
-30
-18
-18
-13
-9
-4
2
6
11
11
6
13
25
27
16
-2
-13
-13
-4
-2
-16
-34
-27
-4
9
2
-6
-16
-25
-20
-9
2
2
-18
-55
4
315
751
1064
1050
387
-473
-540
-164
-155
-218
-115
-111
-150
-109
-92
-106
-88
-62
-51
-32
-18
-13
4
30
57
85
115
139
157
180
204
201
157
129
139
141
118
83
46
11
-18
-41
-62
-78
-81
-69
-62
-48
-32
-48
-62
-34
-18
-18
-4
6
11
23
32
32
30
30
34
37
34
44
57
51
44
62
71
67
67
69
69
55
51
64
71
60
64
83
83
81
81
76
78
90
99
106
118
129
136
129
118
113
109
97
92
95
95
85
25
11
282
744
1034
960
329
-498
-598
-204
-143
-194
-81
-57
-109
-71
-37
-48
-34
-6
4
16
34
51
67
92
118
139
164
194
218
238
259
262
250
238
218
183
141
97
46
-20
-81
-97
-92
-97
-99
-97
-90
-67
-46
-39
-32
-18
-6
0
9
20
18
11
11
18
20
18
11
4
6
11
6
-13
-53
-88
-85
-67
-62
-64
-69
-74
-81
-102
-115
-109
-99
-92
-78
-60
-37
-30
-41
-51
-48
-37
-20
-13
-18
-23
-25
-44
2
269
647
918
932
364
-456
-579
-213
-150
-192
-76
-39
-78
-55
-25
-20
-4
18
20
23
46
71
90
113
132
148
173
206
238
259
262
248
245
243
220
187
153
109
69
46
30
11
-6
-16
-18
-25
-34
-41
-64
-69
-41
-20
-11
-2
2
4
16
25
27
30
30
32
34
41
48
48
37
32
41
46
34
20
18
25
30
39
41
30
25
37
57
71
74
81
104
113
102
95
88
83
90
97
102
111
106
76
106
333
674
960
1066
600
-236
-456
-92
9
-64
27
76
37
51
53
13
16
44
41
37
46
48
44
55
69
78
88
83
88
113
122
118
115
99
81
74
57
18
-18
-44
-57
-71
-83
-90
-111
-136
-122
-97
-95
-92
-104
-118
-97
-76
-76
-67
-55
-53
-44
-32
-27
-23
-20
-18
-11
-18
-27
-20
-11
-6
4
16
16
18
25
30
34
44
39
16
-2
13
44
51
53
69
88
85
78
74
67
64
69
81
92
92
69
46
171
505
858
1085
902
83
-545
-317
-23
-95
-76
13
-11
-9
41
46
34
46
67
81
95
111
115
122
148
178
199
215
229
238
245
241
222
208
197
176
153
125
95
57
9
-30
-48
-62
-67
-62
-74
-97
-102
-85
-71
-78
-81
-64
-46
-46
-44
-39
-46
-46
-34
-27
-30
-37
-48
-46
-27
-16
-13
-16
-18
-13
-2
9
11
-13
-46
-44
-25
-18
-18
-18
-18
-2
16
27
41
55
55
48
41
41
48
51
48
44
39
39
20
41
289
721
1055
1069
494
-361
-517
-120
-39
-104
9
48
-6
0
16
6
-4
-23
-18
9
30
39
55
76
95
111
134
153
150
157
166
160
153
148
141
129
106
78
53
16
-37
-69
-81
-90
-106
-141
-176
-180
-173
-171
-166
-187
-224
-218
-197
-199
-206
-204
-208
-220
-224
-215
-204
-201
-192
-176
-169
-157
-143
-143
-136
-122
-111
-97
-88
-76
-57
-46
-39
-39
-51
-51
-41
-41
-41
-25
-11
-6
4
16
-2
37
333
811
1106
962
243
-533
-519
-129
-90
-109
20
53
27
60
88
81
95
115
125
136
155
171
185
190
180
185
218
241
248
259
264
252
236
227
220
201
173
134
102
67
27
2
2
6
9
2
0
6
11
13
16
9
-20
-57
-62
-41
-39
-48
-51
-53
-51
-44
-37
-46
-64
-69
-57
-51
-48
-44
-39
-32
-18
0
23
30
16
6
13
18
23
32
30
27
37
32
27
178
561
943
1104
793
-41
-561
-317
-102
-169
-102
4
-20
-32
11
30
32
46
44
18
18
53
78
95
118
136
157
185
211
229
222
187
173
183
180
166
143
102
69
46
13
-20
-41
-44
-32
-16
0
11
11
13
25
41
51
51
46
34
27
32
37
30
9
-9
-13
-16
-16
-18
-30
-41
-44
-37
-27
-18
-20
-30
-20
4
11
2
-9
-18
-16
0
13
16
16
16
2
2
160
494
809
988
716
-106
-591
-301
-92
-190
-125
-16
-48
-51
-4
0
-2
9
16
23
41
60
85
109
127
146
171
192
208
220
222
213
206
199
187
173
155
127
97
62
34
23
13
11
20
27
34
48
53
48
46
53
57
57
57
60
71
71
67
64
64
64
69
67
64
57
46
48
55
44
16
-25
-67
-76
-76
-92
-95
-81
-64
-48
-55
-85
-104
-95
-83
-71
-62
-57
-53
-60
-76
25
336
695
960
890
185
-521
-422
-92
-118
-118
-4
-2
-20
18
30
23
41
64
76
88
97
99
106
132
157
166
155
146
162
176
169
155
143
136
134
127
102
67
37
13
-4
-13
-13
-20
-25
-16
0
6
-11
-57
-95
-88
-76
-88
-95
-95
-97
-92
-83
-78
-78
-83
-88
-81
-74
-71
-71
-78
-85
-81
-67
-57
-60
-74
-88
-83
-74
-76
-81
-81
-78
-71
-53
-37
-41
-67
-85
-76
-60
-53
-51
-51
-41
-39
-55
53
375
735
988
865
113
-538
-380
-81
-120
-90
25
13
-9
20
34
46
69
76
62
57
74
88
97
120
139
148
169
190
201
197
160
127
132
139
134
125
102
71
48
30
16
2
-9
-4
11
25
30
32
34
41
51
60
64
55
41
44
55
60
60
57
57
57
60
64
67
60
57
67
69
55
51
53
46
34
18
2
-2
-2
0
-2
9
32
37
4
-32
-55
-57
-51
-46
-48
-37
-27
-37
-41
120
545
978
1101
663
-236
-698
-382
-157
-224
-143
-39
-64
-57
-13
-11
-13
4
20
41
64
78
88
99
113
132
153
178
197
185
146
139
148
134
122
120
104
81
53
9
-30
-55
-69
-60
-53
-57
-48
-34
-30
-27
-20
-16
-16
-20
-27
-53
-76
-81
-88
-95
-88
-81
-92
-111
-113
-111
-115
-120
-129
-148
-162
-153
-134
-127
-115
-97
-113
-150
-148
-132
-141
-143
-125
-106
-92
-71
-78
-106
6
422
906
1078
712
-162
-723
-452
-143
-187
-136
-16
-20
-18
27
39
46
67
69
88
115
134
155
178
190
211
243
269
287
294
285
271
243
206
194
185
155
122
88
46
9
-16
-27
-20
-6
2
6
13
23
37
55
67
67
62
64
71
76
78
76
64
62
67
62
41
11
-6
-9
-4
-4
-16
-55
-81
-57
-39
-51
-60
-62
-69
-62
-44
-34
-27
-27
-51
-57
120
535
932
1080
705
-164
-603
-278
-67
-150
