538
2050
3753
4587
5135
5900
6480
6843
7222
7569
7811
8079
8398
8572
8669
8877
9034
9078
9254
9443
9411
9385
9482
9526
9586
9734
9776
9695
9702
9785
9762
9693
9713
9730
9676
9679
9690
9600
9561
9582
9531
9526
9529
9325
9133
9235
9690
10483
10904
10277
9286
8828
8870
8921
8766
8613
8653
8676
8528
8435
8410
8318
8278
8271
8204
8146
8086
8005
7985
7962
7897
7867
7811
7707
7652
7596
7490
7400
7310
7201
7132
7079
7058
6998
6790
6596
6522
6475
6392
6323
6263
6175
6117
6087
6020
5916
5851
5812
5757
5694
5620
5537
5472
5412
5371
5315
5200
5103
5061
4999
4927
4895
4844
4758
4707
4682
4622
4562
4490
4384
4351
4347
4247
4162
4137
4079
4005
3970
3952
3896
3820
3781
3753
3704
3670
3640
3577
3513
3473
3445
3415
3376
3316
3268
3258
3233
3191
3154
3101
3053
3018
2939
2891
2877
2812
2729
2620
2498
2611
3083
3695
4039
3709
2819
2207
2267
2350
2193
2165
2218
2188
2151
2142
2128
2117
2110
2096
2073
2061
2059
2050
2054
2070
2040
2013
2033
2006
1950
1932
1888
1825
1805
1784
1742
1698
1647
1597
1583
1573
1523
1467
1453
1449
1428
1409
1400
1391
1384
1386
1368
1319
1291
1282
1257
1227
1204
1181
1146
1102
1072
1063
1065
1060
1040
1026
1019
1005
1000
1003
973
915
899
915
910
892
882
864
866
873
857
871
880
841
822
829
822
820
808
792
795
785
760
751
758
748
739
751
746
718
702
695
686
681
677
644
563
462
524
977
1710
2144
1821
977
395
448
559
432
416
489
462
439
455
434
425
448
452
455
476
485
485
506
547
573
575
577
591
596
566
540
531
478
416
399
372
328
300
284
279
272
254
256
263
247
226
210
212
217
198
196
226
231
203
201
217
221
217
214
212
212
210
210
208
201
194
217
228
208
212
233
228
212
210
214
226
242
233
187
157
164
173
168
182
191
196
217
217
208
212
196
177
198
208
189
194
205
159
53
25
270
834
1432
1504
857
101
-71
101
73
-9
39
48
18
43
83
94
106
131
145
145
164
180
187
238
286
293
309
316
328
355
332
275
251
256
244
217
184
147
120
104
90
78
60
46
41
20
16
46
55
36
32
46
46
16
-18
-43
-55
-41
-27
-27
-32
-30
-36
-46
-23
4
0
-2
4
20
34
23
16
9
-9
6
32
20
-11
-27
-9
6
0
0
20
53
55
48
71
83
69
67
76
78
87
97
64
0
-71
-48
291
996
1597
1488
686
-46
-117
43
-27
-87
-23
-20
-62
-39
-4
-4
18
57
62
69
101
122
136
168
198
221
235
244
263
263
231
212
205
180
166
164
129
85
62
43
30
30
41
53
62
71
78
87
99
94
73
64
83
83
43
9
20
34
27
20
2
-11
-2
-11
-23
-18
-18
-18
-16
-16
-23
-39
-43
-27
-13
-11
-25
-50
-50
-32
-30
-32
-16
2
4
6
11
20
30
25
11
30
53
46
34
2
-99
-152
120
785
1444
1541
912
64
-217
-18
-13
-136
-90
-32
-41
-30
-2
0
11
41
62
71
85
94
120
157
175
184
173
150
161
180
166
136
127
117
99
83
48
-2
-50
-94
-99
-71
-64
-64
-62
-69
-60
-41
-34
-39
-32
-6
-6
-16
4
6
-9
4
2
-9
16
9
-30
-13
4
-16
-18
-11
-43
-57
-41
-43
-50
-46
-39
-46
-78
-85
-83
-115
-117
-87
-104
-122
-104
-108
-127
-127
-122
-99
-73
-90
-97
-67
-62
-92
-106
-108
-101
-80
-76
-101
-173
-293
-279
53
679
1245
1185
439
-263
-335
-147
-171
-233
-191
-152
-136
-106
-80
-87
-83
-41
-4
13
36
64
85
99
120
157
191
194
187
205
203
168
147
143
124
90
69
64
53
13
-6
13
30
25
27
55
69
53
64
92
78
73
101
97
87
97
97
90
92
76
55
67
80
64
53
64
83
67
16
-23
-32
-34
-53
-60
-39
-27
-27
-13
-16
-32
-20
-13
-39
-39
-16
-11
-18
-27
-23
-2
-6
-30
-34
-30
-32
-25
-9
-48
-157
-166
147
771
1335
1285
570
-97
-171
0
-36
-110
-62
-43
-48
-6
11
-9
11
46
48
53
64
53
50
71
99
124
138
152
187
191
166
154
134
97
97
92
20
-41
-69
-94
-97
-87
-85
-73
-57
-46
-23
6
0
0
25
39
39
34
30
39
48
43
32
36
46
34
23
34
57
60
46
46
53
50
39
36
48
48
39
43
50
53
46
39
39
32
23
9
4
18
13
-16
-27
-11
0
-4
-9
11
36
34
23
13
18
23
20
4
-23
-25
-11
-39
-127
-196
-18
566
1291
1488
869
27
-265
-87
-69
-182
-124
-64
-117
-110
-34
-18
-27
-2
11
23
62
87
99
120
140
159
191
226
238
221
203
194
184
182
184
147
94
76
73
64
62
67
48
34
39
48
53
55
57
78
90
85
97
108
97
92
110
117
101
78
46
27
43
43
25
32
36
32
34
41
48
34
11
9
16
-4
-32
-46
-43
-34
-25
-25
-50
-85
-92
-62
-43
-46
-46
-46
-34
-16
-16
-27
-57
-85
-73
-53
-43
-23
-2
-2
-13
-6
13
6
-13
-18
-20
-11
6
-30
-154
-221
-9
575
1287
1573
1077
168
-254
-78
-32
-173
-145
-115
-171
-136
-69
-87
-90
-55
-48
-32
-11
-2
25
62
71
60
71
101
108
101
90
78
71
53
34
32
16
-18
-57
-99
-113
-90
-78
-83
-76
-67
-71
-69
-55
-30
-13
-20
-13
4
6
4
0
-23
-48
-50
-46
-41
-48
-64
-53
-30
-30
-41
-39
-18
-2
-6
-2
6
0
4
16
-6
-32
-16
6
13
6
6
18
27
39
50
55
48
41
41
43
43
55
64
62
62
71
83
87
85
87
94
106
113
108
120
122
57
18
48
64
50
39
-2
-90
-168
-104
302
1012
1525
1345
529
-168
-164
4
-108
-145
-53
-48
-50
-23
-20
-6
25
43
60
80
94
113
143
159
145
138
173
203
198
194
189
159
124
117
106
76
43
11
-4
-16
-25
-27
-30
-46
-64
-60
-36
-23
-46
-87
-97
-85
-64
-39
-34
-53
-50
-32
-34
-32
-23
-32
-36
-30
-25
2
6
-27
-30
-4
-2
-18
-48
-73
-50
-25
-30
-25
-2
-4
-6
6
16
11
9
13
23
34
43
32
9
18
36
27
20
30
34
34
25
18
41
64
46
39
69
78
55
43
41
25
39
90
78
2
-87
-117
99
670
1308
1465
912
122
-191
-23
32
-85
-71
2
-11
-23
2
-2
-16
-4
4
4
20
25
27
53
80
83
87
110
115
90
78
67
39
36
34
2
-20
-36
-80
-115
-115
-127
-136
-120
-97
-90
-83
-83
-87
-71
-53
-46
-39
-30
-32
-43
-43
-27
-16
-23
-27
-30
-27
-13
-4
-6
-4
-2
-2
9
11
4
9
16
20
27
30
30
32
25
13
20
27
27
39
43
48
50
43
43
39
-6
-30
-6
0
-2
13
2
-67
-154
-108
235
857
1368
1208
413
-203
-184
-41
-127
-164
-108
-122
-145
-145
-143
-120
-90
-78
-67
-53
-32
-4
9
20
43
60
76
108
131
120
92
69
50
25
-4
-46
-94
-129
-145
-150
-152
-159
-173
-180
-168
-147
-129
-124
-131
-127
-108
-99
-94
-94
-101
-99
-90
-94
-101
-101
-104
-101
-92
-92
-94
-99
-101
-92
-87
-108
-124
-140
-168
-161
-147
-157
-145
-129
-129
-108
-76
-64
-60
-48
-41
-41
-36
-25
-13
-11
-9
-2
-30
-124
-157
99
709
1363
1465
829
46
-184
-18
-20
-113
-57
-20
-53
-39
2
9
25
50
60
69
92
115
140
168
187
205
233
256
265
263
244
219
208
201
180
150
117
92
69
50
20
-11
-23
-27
-36
-25
-25
-55
-60
-39
-32
-27
-30
-41
-43
-50
-57
-50
-50
-64
-64
-57
-57
-53
-48
-46
-39
-32
-30
-23
-13
-9
-6
-6
-4
0
-9
-16
-4
6
13
20
25
32
41
41
43
55
53
50
62
76
80
76
80
101
101
83
76
85
85
85
85
50
-46
-131
13
561
1280
1566
1104
221
-281
-150
-55
-182
-171
-124
-168
-157
-101
-92
-80
-50
-36
-16
18
39
50
69
101
138
164
180
189
191
191
182
164
136
106
85
71
57
39
20
9
9
13
23
32
36
39
50
62
71
80
85
73
69
78
76
64
55
50
53
55
55
53
41
11
-34
-67
-62
-62
-83
-85
-69
-62
-60
-55
-57
-60
-48
-36
-30
-34
-67
-104
-101
-71
-53
-53
-62
-57
-43
-27
-13
-11
-18
-16
-4
4
9
-9
-27
-16
0
6
27
43
27
27
50
48
34
34
32
36
53
48
-9
-120
-131
184
845
1456
1451
734
-30
-166
20
-20
-108
-48
-34
-76
-71
-36
-23
-23
-11
6
27
55
78
94
108
134
164
191
210
208
203
198
184
166
152
131
104
87
76
48
6
-36
-53
-41
-36
-48
-46
-34
-25
-11
6
13
11
4
-4
-9
-4
2
-2
-11
-11
-6
-6
-25
-71
-104
-99
-97
-101
-97
-97
-94
-92
-92
-87
-87
-94
-104
-115
-127
-134
-131
-129
-122
-117
-110
-97
-87
-90
-92
-85
-76
-64
-64
-69
-64
-62
-55
-46
-48
-39
-27
-34
-34
-36
-57
-57
-43
-55
-78
-99
-145
-233
-316
-231
194
873
1310
1030
231
-305
-240
-113
-214
-233
-154
-152
-150
-108
-87
-78
-57
-39
-23
-4
13
48
83
101
124
161
177
177
189
184
145
106
97
94
80
53
25
4
-9
-23
-34
-41
-41
-32
-16
0
4
9
18
18
11
6
2
-6
-11
-16
-13
-9
-25
-48
-50
-43
-32
-25
-20
-23
-30
-23
-6
4
9
-9
-46
-60
-39
-23
-18
-16
-16
-9
6
23
23
11
13
32
46
53
60
57
43
43
55
60
62
55
34
32
46
55
55
50
57
78
87
92
101
87
67
71
87
90
87
80
46
-41
-97
90
642
1340
1594
1086
233
-180
-41
6
-117
-83
-11
-27
-25
-2
4
9
23
27
6
-16
4
48
67
85
110
124
134
147
150
127
64
11
2
-6
-27
-43
-73
-110
-122
-115
-113
-115
-117
-134
-145
-127
-97
-85
-83
-76
-57
-39
-23
-20
-25
-18
-6
0
4
4
2
2
6
16
23
20
20
20
18
16
16
18
20
23
27
36
46
41
41
55
62
64
71
71
71
76
80
83
85
85
90
92
90
94
101
101
101
101
104
104
94
85
90
92
94
104
78
46
50
30
-16
-9
13
11
11
18
-4
-85
-159
-9
529
1236
1550
1116
249
-244
-120
-34
-157
-145
-80
-101
-113
-101
-101
-97
-92
-73
-50
-41
-27
-2
20
46
73
94
115
136
138
134
127
108
92
78
60
39
16
-6
-20
-34
-39
-30
-25
-25
-30
-30
-18
4
16
18
2
-25
-27
-6
-9
-39
-64
-55
-34
-30
-27
-23
-25
-25
-16
-6
0
-2
-2
9
20
23
23
25
27
30
27
18
16
-2
-43
-53
-25
-9
-9
-11
-11
-6
4
11
11
16
20
20
25
34
34
34
30
30
43
50
43
34
32
39
53
67
55
20
11
25
16
6
11
2
-4
9
-2
-90
-212
-168
244
942
1386
1100
270
-332
-298
-154
-265
-309
-251
-277
-291
-235
-214
-224
-217
-198
-182
-166
-145
-110
-80
-60
-25
18
50
73
83
80
78
78
64
50
32
2
-23
-32
-34
-43
-57
-69
-67
-48
-30
-20
-13
-4
6
20
25
13
11
20
25
27
36
43
41
34
34
43
57
53
32
9
6
20
27
23
25
32
36
41
36
6
-16
-4
11
18
11
-23
-50
-48
-32
-20
-16
-13
-2
6
13
18
20
30
41
46
41
50
64
71
80
90
92
101
94
73
71
83
92
94
94
80
11
-104
-90
251
896
1446
1358
607
-90
-161
-9
-87
-157
-104
-97
-108
-85
-69
-69
-78
-76
-50
-30
-11
13
30
50
73
94
127
159
168
168
138
71
36
36
18
-20
-76
-122
-129
-129
-143
-143
-134
-122
-101
-80
-69
-67
-57
-39
-20
-13
-13
-11
-4
6
9
2
0
0
-2
-2
0
-2
-13
-30
-34
-25
-11
-9
-18
-30
-27
-16
-6
-4
-11
-18
-13
-6
-6
-23
-48
-62
-50
-36
-27
-18
-16
-13
-4
2
11
23
30
27
18
23
46
53
39
39
53
67
85
92
57
20
27
39
34
39
39
34
39
30
-34
-134
-117
242
938
1506
1421
667
-83
-203
-32
-104
-198
-140
-127
-150
-115
-76
-67
-64
-55
-32
0
25
43
57
73
99
136
171
191
194
173
157
159
143
124
110
80
48
36
23
9
0
-20
-32
-11
4
6
13
23
30
39
55
62
62
67
78
80
78
90
90
69
67
83
85
55
13
9
32
36
32
39
43
39
39
30
23
30
32
34
39
48
57
57
57
60
64
73
80
80
76
80
85
87
90
83
55
41
55
60
39
16
6
9
11
20
27
20
16
27
39
41
25
-13
-41
-30
-9
-13
-34
-39
-43
-110
-210
-166
217
910
1439
1294
503
-221
-286
-122
-214
-281
-208
-214
-272
-254
-228
-244
-235
-205
-191
-171
-140
-127
-108
-80
-55
-30
4
36
53
50
43
41
36
20
2
-16
-32
-55
-99
-138
-134
-122
-117
-106
-94
-87
-69
-53
-48
-34
-16
-6
-9
-2
9
16
23
30
32
27
34
46
50
43
43
48
50
60
69
71
69
71
73
85
94
87
76
80
90
90
78
62
32
9
20
39
36
36
41
48
60
67
71
69
67
67
83
97
106
108
97
99
108
80
43
34
43
55
62
62
36
-62
-136
39
568
1243
1504
1007
175
-214
-67
2
-113
-106
-53
-60
-62
-43
-43
-55
-48
-23
-2
11
27
41
64
92
120
150
175
184
191
187
166
147
124
99
80
55
20
0
-23
-55
-64
-53
-48
-55
-73
-92
-80
-55
-43
-41
-62
-90
-73
-50
-55
-71
-90
-99
-85
-69
-69
-90
-108
-101
-83
-76
-69
-62
-62
-64
-60
-50
-41
-39
-46
-41
-27
-25
-23
-23
-25
-23
-18
-13
-6
-9
-16
-18
-11
-4
-4
-9
-11
-11
-27
-30
-18
-16
-30
-39
-32
-18
-18
-18
-18
-60
-152
-147
164
806
1414
1402
688
-48
-184
-11
-55
-150
-99
-67
-108
-143
-143
-127
-108
-104
-131
-152
-127
-99
-92
-69
-27
0
27
64
87
92
87
80
73
62
39
11
-20
-46
-57
-69
-73
-73
-73
-67
-48
-36
-25
-11
-4
-2
-2
2
13
25
27
34
43
46
50
48
46
55
60
53
55
62
60
64
78
83
78
78
83
94
99
94
90
94
97
90
62
39
13
-18
-23
-2
2
2
11
13
18
36
46
41
48
55
57
67
71
67
64
80
104
115
113
113
110
97
90
99
108
104
99
73
-11
-101
-25
372
1033
1513
1340
545
-147
-173
-16
-106
-143
-60
-69
-104
-80
-55
-41
-18
-6
-4
9
30
43
53
64
69
78
106
120
99
69
46
34
27
16
-2
-46
-120
-168
-164
-161
-173
-182
-187
-182
-166
-152
-140
-134
-136
-129
-110
-97
-87
-87
-94
-87
-73
-71
-67
-62
-83
-101
-90
-69
-67
-73
-67
-50
-36
-30
-20
-20
-25
-13
6
11
16
23
16
18
34
43
46
48
48
53
60
69
71
67
69
76
73
50
32
34
34
36
50
64
64
53
50
62
78
80
76
69
76
99
110
94
67
41
20
20
39
50
46
48
46
-18
-120
-71
293
933
1451
1338
589
-87
-140
18
-67
-136
-60
-46
-73
-46
-23
-23
-4
9
9
18
32
41
43
57
85
110
127
147
173
175
161
152
131
94
64
27
-25
-60
-73
-90
-101
-101
-94
-92
-85
-64
-50
-43
-30
-16
-11
-2
6
11
18
25
30
30
-2
-39
-32
-23
-34
-27
-16
-30
-36
-20
-11
-18
-41
-64
-53
-34
-36
-34
-23
-11
-2
4
9
13
13
20
34
46
43
43
48
53
57
64
67
64
64
69
73
67
57
55
43
18
13
30
30
23
30
39
48
50
50
50
64
87
90
85
90
85
69
67
80
85
69
57
39
-39
-124
-27
425
1125
1553
1257
425
-187
-187
-106
-226
-233
-152
-159
-173
-143
-129
-120
-90
-67
-64
-48
-16
9
32
62
83
104
136
171
189
187
171
161
152
124
90
62
30
-2
-32
-67
-78
-76
-80
-76
-55
-43
-34
-23
-18
-6
13
27
34
39
36
41
50
57
64
60
50
50
57
60
60
46
39
46
53
53
57
57
55
64
69
69
71
71
64
67
76
85
71
30
6
27
48
46
43
41
39
43
60
67
60
60
57
50
48
53
50
41
39
25
-9
-20
-11
-6
-11
-6
-2
0
0
0
0
0
-9
-23
-39
-53
-50
-36
-32
-55
-94
-136
-217
-268
-50
543
1229
1449
917
60
-323
-159
-113
-231
-196
-131
-147
-136
-99
-85
-76
-50
-34
-23
0
30
48
67
76
67
78
122
154
168
166
152
143
122
83
57
34
6
-11
-25
-50
-67
-83
-101
-90
-71
-69
-60
-46
-32
-16
-6
0
6
4
9
25
34
34
36
27
20
32
43
39
13
-2
9
25
20
13
20
30
30
36
46
48
43
39
48
60
55
48
55
57
60
71
73
69
69
73
67
55
53
43
11
-23
-32
-34
-32
-25
-30
-43
-41
-34
-48
-62
-64
-85
-99
-71
-53
-76
-83
-60
-60
-76
-60
-53
-62
-50
-46
-99
-194
-198
87
704
1319
1358
681
-97
-277
-87
-108
-196
-131
-106
-134
-94
-50
-50
-43
-25
-6
18
41
60
78
94
120
152
187
226
247
240
233
233
224
205
175
136
94
55
23
4
-9
-23
-23
-11
-6
-6
-25
-57
-62
-60
-67
-64
-80
-104
-90
-69
-62
-64
-92
-120
-101
-83
-87
-83
-76
-76
-67
-55
-57
-73
-76
-60
-50
-50
-46
-39
-41
-39
-30
-20
-16
-16
-18
-20
-11
-2
0
-2
-11
-11
-6
-13
-27
-32
-30
-34
-36
-32
-32
-34
-50
-83
-94
-92
-104
-113
-101
-92
-92
-80
-73
-87
-101
-101
-108
-122
-138
-166
-194
-249
-318
-203
284
1016
1444
1123
277
-300
-235
-104
-210
-224
-147
-161
-171
-124
-99
-97
-69
-34
-18
0
27
48
76
106
127
157
196
221
233
242
231
217
214
196
164
131
99
76
62
43
30
25
18
9
9
18
25
34
39
50
67
73
73
78
85
94
99
83
43
20
34
50
50
43
27
-4
-16
6
11
2
9
18
20
20
23
16
6
4
13
27
36
39
39
43
48
53
57
57
55
55
62
73
78
76
73
78
76
64
67
76
67
60
67
64
53
48
43
27
13
13
-23
-143
-233
-71
443
1139
1481
1051
159
-342
-210
-108
-233
-244
-194
-198
-177
-136
-131
-134
-113
-80
-53
-32
-13
2
23
50
80
104
113
106
101
117
124
117
108
80
46
25
4
-25
-53
-73
-78
-67
-55
-48
-43
-46
-41
-18
4
16
18
16
20
36
48
53
50
34
30
36
32
32
34
27
30
43
50
46
43
48
53
55
57
57
55
36
11
11
30
36
27
25
32
46
55
53
41
41
46
46
50
60
55
53
67
73
57
43
48
53
55
60
48
-32
-164
-159
164
818
1435
1430
707
-64
-235
-67
-101
-184
-124
-94
-115
-90
-64
-76
-92
-83
-64
-55
-46
-32
-13
6
34
64
90
115
138
145
138
134
122
99
71
23
-39
-78
-99
-117
-120
-120
-120
-104
-92
-87
-83
-85
-83
-67
-55
-48
-36
-27
-18
-11
-11
-2
4
2
-2
0
0
2
9
11
11
-9
-43
-43
-25
-23
-18
-16
-16
-4
0
-2
0
-9
-18
-6
9
11
2
-27
-46
-30
-13
-20
-20
-13
-11
-4
4
2
-4
-2
13
34
27
0
-20
-25
-32
-32
-20
-20
-30
-25
-39
-127
-238
-166
265
979
1481
1280
455
-238
-254
-97
-191
-233
-157
-166
-189
-152
-131
-129
-120
-113
-104
-85
-64
-39
-20
-25
-36
-16
20
36
46
43
23
16
23
13
-11
-48
-83
-101
-113
-122
-129
-138
-136
-115
-99
-90
-83
-87
-85
-62
-39
-30
-39
-64
-67
-41
-27
-20
-20
-30
-30
-25
-39
-36
-20
-20
-23
-11
-2
4
6
2
6
23
32
36
34
27
36
53
57
53
50
55
64
69
73
87
83
64
69
80
87
83
60
48
64
76
80
64
18
-4
20
39
39
46
48
43
50
64
80
78
64
71
87
80
64
69
67
39
23
30
-9
-110
-127
145
751
1372
1430
755
-20
-201
-18
-46
-143
-87
-55
-83
-64
-34
-34
-34
-11
4
13
36
57
55
55
73
101
115
110
99
104
104
92
69
36
18
2
-36
-69
-80
-99
-117
-117
-117
-117
-120
-143
-154
-129
-110
-101
-83
-71
-64
-53
-48
-43
-34
-30
-39
-60
-73
-67
-55
-53
-62
-69
-62
-50
-48
-43
-27
-16
-16
-11
-4
-6
0
16
23
23
25
32
46
53
48
46
53
57
67
73
76
73
76
78
83
85
76
62
62
67
71
73
76
76
76
83
92
92
97
94
90
92
90
83
87
113
124
113
127
143
108
50
36
60
39
-2
-11
-60
-182
-231
11
610
1289
1481
912
71
-272
-120
-104
-242
-226
-161
-168
-161
-131
-122
-120
-94
-64
-48
-46
-36
-9
32
62
78
106
145
173
184
175
152
127
104
94
92
73
32
-11
-32
-32
-32
-27
-30
-41
-32
-9
9
20
30
23
16
32
50
53
50
53
60
64
60
43
20
2
-6
-11
-4
6
-18
-60
-48
-18
-25
-27
-18
-18
-18
-4
9
-4
-43
-62
-32
-16
-25
-18
-4
-6
-6
6
18
23
20
23
34
32
16
11
18
23
30
39
46
34
20
23
25
23
25
30
30
39
48
48
48
34
6
-13
-11
0
-4
-23
-46
-124
-205
-67
452
1169
1516
1125
270
-270
-180
-76
-201
-201
-127
-134
-147
-154
-150
-117
-94
-83
-67
-43
-11
13
25
55
97
117
131
173
203
198
182
177
173
145
99
67
46
16
-13
-25
-20
-23
-32
-27
-13
-16
-11
4
18
30
36
39
46
53
53
53
55
57
57
57
55
53
57
57
55
55
32
6
-2
0
2
0
9
27
25
11
16
27
32
41
43
39
34
6
-13
4
18
13
13
11
16
27
25
13
11
9
6
9
4
-2
-6
-2
4
0
-2
-11
-43
-60
-41
-27
-32
-36
-41
-85
-184
-201
80
697
1324
1442
855
20
-275
-92
-92
-205
-138
-85
-113
-101
-76
-78
-85
-90
-71
-41
-30
-13
18
46
62
67
64
92
136
157
157
143
129
122
110
87
46
-30
-92
-92
-83
-90
-92
-90
-87
-78
-69
-69
-57
-46
-39
-20
-2
6
6
0
4
18
25
32
32
20
16
25
32
36
34
25
23
27
36
50
41
25
32
48
50
53
46
32
27
20
0
-6
2
9
16
23
27
32
32
27
27
43
55
55
43
41
57
78
78
60
48
41
30
27
32
30
30
25
2
-67
-175
-203
57
672
1264
1248
552
-175
-316
-143
-182
-256
-184
-161
-184
-154
-124
-115
-99
-83
-64
-39
-20
0
25
43
67
101
140
166
173
173
168
157
134
106
76
46
13
-23
-50
-67
-76
-78
-78
-83
-71
-46
-36
-32
-16
0
6
16
23
20
23
30
36
43
39
23
9
2
11
20
11
11
18
13
18
32
32
27
36
41
34
11
-23
-23
-9
-11
-9
4
4
6
20
18
4
9
23
36
46
34
-2
-36
-50
-48
-43
-46
-69
-87
-71
-48
-90
-189
-221
4
568
1229
1405
820
18
-258
-85
-57
-157
-120
-78
-108
-106
-76
-62
-55
-41
-36
-32
-18
4
11
13
32
57
80
106
122
124
129
129
117
99
69
30
-4
-27
-53
-80
-115
-161
-171
-152
-143
-134
-117
-106
-92
-71
-60
-64
-73
-67
-55
-48
-36
-25
-30
-50
-62
-55
-43
-39
-41
-41
-30
-16
-9
-6
-9
-6
6
18
25
23
18
25
39
43
48
48
41
34
30
36
50
43
27
39
60
62
62
62
50
57
76
80
83
85
76
69
80
85
83
83
94
104
106
113
113
87
64
73
85
73
41
-4
-73
-157
-175
73
695
1352
1456
811
-32
-325
-154
-154
-261
-191
-136
-157
-134
-106
-115
-106
-73
-60
-55
-32
-2
16
34
62
85
80
78
97
106
101
90
76
60
36
23
11
-25
-64
-78
-85
-87
-87
-90
-83
-71
-60
-46
-36
-30
-25
-20
-16
-4
-20
-60
-64
-46
-55
-67
-60
-57
-62
-55
-50
-53
-78
-99
-90
-94
-124
-122
-104
-99
-94
-87
-78
-67
-62
-55
-46
-41
-43
-46
-39
-27
-25
-25
-13
-6
-18
-27
-23
-18
-23
-27
-23
-16
-16
-16
-9
-9
-16
-16
-6
-2
-2
0
0
4
18
23
23
30
34
39
41
50
69
76
69
73
76
53
32
36
48
60
67
57
0
-101
-113
180
811
1409
1416
714
-97
-291
-99
-136
-256
-217
-180
-198
-187
-161
-157
-143
-115
-94
-76
-53
-34
-20
-2
32
67
90
113
140
164
168
168
159
134
108
101
94
60
13
-2
-2
-2
-2
-4
-13
-13
6
36
57
62
46
46
69
73
62
55
55
53
53
64
73
64
48
53
64
64
67
46
16
23
41
39
46
53
43
43
55
62
69
53
9
4
32
41
36
36
27
25
41
55
55
50
43
53
64
69
69
69
69
76
83
85
73
32
4
18
30
25
34
36
32
48
64
53
43
39
20
0
-2
-4
-11
-13
-16
-57
-164
-214
-6
547
1215
1400
841
25
-318
-191
-175
-277
-231
-184
-210
-201
-166
-157
-143
-120
-110
-99
-78
-57
-36
-18
-6
9
34
64
90
92
60
41
39
23
9
-4
-34
-62
-83
-99
-108
-110
-108
-99
-90
-76
-55
-39
-32
-20
-4
6
16
20
27
27
18
13
20
23
25
32
36
34
34
39
46
48
50
55
62
55
34
20
23
36
41
41
43
48
55
62
69
69
73
80
80
78
71
69
83
90
73
57
60
64
67
71
67
50
18
-4
2
2
-11
-18
-30
-34
-27
-23
-23
-9
2
2
9
20
13
-4
-4
2
-6
-16
-13
-43
-143
-201
-13
531
1234
1546
1109
251
-224
-101
-25
-152
-140
-90
-127
-120
-83
-76
-62
-27
-4
13
27
41
64
94
120
145
157
161
189
212
217
219
208
180
159
140
120
85
20
-36
-43
-36
-41
-46
-80
-113
-92
-60
-55
-48
-41
-39
-20
-2
2
0
-2
-4
-13
-23
-16
-9
-20
-30
-20
-11
-6
-11
-23
-18
0
-2
-11
-4
-4
-16
-23
-36
-48
-53
-57
-55
-46
-43
-39
-39
-50
-60
-62
-62
-69
-83
-90
-83
-69
-60
-60
-67
-73
-67
-64
-71
-76
-78
-73
-57
-39
-34
-30
-23
-32
-39
-34
-25
-23
-23
-18
-30
-101
-180
-92
353
1040
1414
1070
261
-272
-198
-80
-180
-187
-117
-122
-120
-80
-60
-41
-18
-6
6
27
48
60
57
69
104
136
173
208
224
226
224
214
203
177
140
108
73
36
16
6
-2
-9
-11
-4
4
18
30
34
41
55
67
73
76
73
78
85
80
76
85
90
83
78
76
76
73
69
53
43
50
41
-2
-16
6
13
9
18
23
23
30
32
36
36
41
53
60
55
57
60
39
27
39
41
39
50
53
57
76
64
18
-18
-30
-34
-36
-32
-20
-20
-16
-11
-50
-159
-198
55
647
1268
1358
730
-53
-286
-106
-108
-212
-161
-122
-145
-124
-83
-69
-62
-46
-32
-25
-6
23
41
55
80
120
152
177
184
161
136
147
152
129
101
64
25
9
-6
-36
-64
-69
-69
-87
-94
-73
-62
-60
-39
-18
-20
-30
-30
-25
-13
2
11
16
9
4
16
27
30
27
25
20
30
46
50
48
43
48
62
64
64
67
64
64
73
83
85
87
78
64
69
83
87
80
73
76
87
94
97
87
83
90
101
101
99
92
85
94
113
120
115
113
110
104
90
62
30
0
-16
-11
-39
-145
-231
-92
413
1130
1511
1146
291
-261
-177
-78
-208
-219
-157
-180
-184
-143
-124
-117
-101
-85
-69
-46
-23
0
20
39
62
90
122
154
171
164
145
138
134
115
87
60
30
0
-20
-27
-36
-41
-43
-43
-34
-23
-16
-9
-2
9
25
34
34
34
34
32
20
-25
-69
-62
-60
-76
-76
-92
-124
-113
-85
-83
-90
-117
-145
-129
-104
-97
-90
-80
-69
-57
-53
-43
-34
-27
-16
-6
-6
2
11
11
18
30
34
39
36
27
34
43
41
41
50
55
53
55
62
69
67
67
73
73
71
87
104
99
90
99
101
85
76
83
90
90
87
80
11
-117
-127
208
871
1444
1402
677
-87
-219
-53
-152
-272
-205
-177
-208
-184
-166
-161
-129
-104
-97
-83
-62
-41
-13
16
39
62
87
115
145
159
154
145
124
104
90
69
41
11
-18
-41
-50
-50
-50
-55
-62
-50
-25
-13
-11
-6
2
11
16
23
30
25
25
36
43
41
39
34
25
4
-23
-25
-11
-23
-25
-4
0
2
13
11
6
23
34
27
25
30
30
32
41
53
39
-6
-20
4
23
20
16
13
25
34
34
32
25
16
23
39
48
50
48
53
64
62
64
78
69
41
41
60
64
46
4
-55
-145
-191
18
575
1213
1382
832
53
-247
-94
-73
-187
-182
-175
-212
-208
-189
-177
-154
-136
-120
-99
-83
-67
-39
-9
16
39
67
104
134
154
164
154
131
115
104
85
32
-36
-85
-92
-99
-120
-138
-140
-129
-113
-94
-76
-67
-57
-46
-30
-18
-13
-11
-4
4
4
0
6
9
9
9
13
18
25
27
23
30
39
46
48
43
36
32
13
-9
-18
-16
-6
0
6
18
27
27
30
39
41
46
50
50
55
62
67
73
73
67
73
80
85
87
85
80
87
101
101
78
41
18
11
9
4
0
-2
-4
0
-30
-127
-180
23
596
1294
1527
989
117
-293
-145
-94
-219
-191
-134
-159
-143
-99
-87
-80
-62
-60
-62
-46
-18
-6
-9
6
46
87
115
136
147
154
154
150
143
124
92
62
41
18
-6
-27
-41
-41
-30
-23
-18
-11
-4
6
20
30
20
6
11
27
36
41
43
43
36
30
32
43
36
-2
-36
-25
-6
-2
-2
-34
-71
-57
-30
-23
-20
-27
-27
-11
6
11
13
4
-9
-11
0
16
20
0
-23
-6
16
20
13
13
18
32
41
46
43
39
48
60
55
60
69
64
60
69
71
64
62
60
67
73
57
23
9
16
23
18
9
-11
-80
-191
-182
140
795
1400
1428
741
-69
-263
-69
-108
-212
-150
-113
-131
-113
-108
-136
-129
-87
-62
-46
-30
-23
-13
16
53
85
108
124
124
124
138
143
124
106
94
80
53
20
-6
-30
-43
-48
-50
-48
-39
-34
-27
-11
4
11
9
11
23
20
11
13
18
20
18
16
27
32
23
23
23
25
34
30
20
27
41
41
36
39
41
46
43
43
48
48
50
60
53
53
71
64
36
41
60
57
34
2
-6
-4
-27
-41
-25
-20
-20
-6
0
2
9
11
13
27
41
41
30
20
18
9
2
9
9
4
11
-4
-78
-210
-261
9
626
1220
1261
617
-140
-339
-157
-166
-265
-212
-173
-191
-161
-122
-115
-101
-83
-69
-48
-25
-2
13
32
67
104
136
166
182
184
187
191
180
143
87
39
20
-4
-62
-113
-127
-124
-120
-108
-97
-92
-80
-62
-46
-32
-18
-13
-13
-2
13
23
23
16
18
23
16
4
0
-2
-6
2
16
20
23
23
23
27
34
43
46
41
39
43
50
60
60
50
48
60
71
73
71
62
62
76
83
83
76
60
60
73
76
78
78
69
67
78
85
83
62
30
20
30
41
43
4
-32
-13
-2
-23
-25
-20
-39
-46
-39
-64
-147
-240
-164
284
998
1453
1208
379
-281
-263
-104
-208
-244
-171
-171
-175
-131
-108
-108
-97
-76
-50
-25
-4
13
30
50
78
117
147
166
177
187
189
187
175
145
115
92
60
32
9
-11
-30
-36
-34
-23
-13
-16
-32
-50
-43
-20
-16
-13
-9
-2
6
11
-9
-41
-39
-32
-34
-32
-57
-101
-104
-99
-99
-85
-76
-78
-67
-55
-48
-41
-41
-36
-25
-16
-16
-9
-4
-2
4
6
-6
-27
-36
-23
-11
-9
0
2
-4
6
23
16
6
-2
-2
9
11
0
-6
-2
0
0
2
6
11
11
18
23
-11
-41
-36
-53
-78
-64
-46
-55
-57
-50
-73
-147
-224
-108
369
1063
1449
1118
279
-288
-231
-147
-270
-256
-177
-191
-194
-154
-131
-115
-92
-76
-64
-46
-18
9
39
60
73
99
138
180
205
203
196
191
182
171
143
94
46
23
2
-11
-20
-36
-48
-43
-25
-6
-2
-4
0
13
25
23
0
-18
-13
-2
2
4
9
6
2
4
9
11
16
9
-2
-9
-4
11
9
-2
2
18
27
23
18
18
20
23
32
46
36
-6
-20
4
13
13
11
0
2
20
30
30
27
23
23
39
50
46
20
-2
-2
2
-2
-6
-6
-11
-9
2
-6
-92
-196
-104
337
993
1400
1088
205
-392
-293
-147
-265
-279
-205
-219
-221
-171
-145
-140
-124
-120
-110
-80
-53
-39
-20
9
43
78
113
145
168
180
177
173
166
145
110
78
48
20
-13
-64
-101
-101
-94
-85
-69
-57
-57
-48
-34
-27
-25
-23
-18
-11
0
9
9
6
11
11
11
20
25
23
23
23
27
36
34
13
4
13
20
18
20
27
30
27
41
55
50
41
39
36
39
39
46
57
57
53
57
62
62
64
71
69
69
73
76
87
92
85
92
94
69
62
78
78
57
32
18
-4
-97
-175
2
545
1206
1467
1000
124
-342
-212
-154
-279
-247
-180
-208
-205
-164
-147
-136
-115
-97
-85
-73
-73
-64
-36
-11
11
41
80
113
129
134
131
120
110
99
71
36
4
-11
-18
-32
-50
-55
-48
-43
-34
-25
-20
-18
-2
16
30
30
32
39
41
46
50
55
50
36
34
48
43
18
-6
-32
-32
-16
-9
-11
-34
-69
-71
-53
-46
-41
-60
-94
-83
-50
-41
-41
-41
-43
-27
-18
-34
-53
-43
-32
-32
-20
2
9
-2
-9
2
9
11
18
18
23
32
34
39
43
53
69
76
78
83
69
48
48
62
78
78
57
9
-78
-134
50
610
1296
1562
1102
233
-251
-131
-71
-221
-212
-140
-152
-147
-122
-115
-99
-71
-60
-67
-83
-71
-32
-9
13
39
64
97
127
147
147
122
101
97
85
71
53
23
-16
-41
-43
-46
-48
-53
-53
-41
-25
-9
-2
6
13
16
23
39
43
43
46
48
48
50
50
48
48
46
46
53
55
53
50
43
27
32
46
46
46
48
48
50
53
55
62
62
62
67
71
76
83
73
71
90
90
73
76
87
87
83
71
50
46
50
50
55
62
62
62
71
69
30
-16
-16
9
13
9
-2
-46
-129
-134
152
781
1382
1419
776
-13
-240
-62
-87
-189
-127
-92
-120
-106
-87
-92
-87
-90
-99
-108
-131
-129
-92
-64
-46
-13
18
46
76
92
90
85
76
69
64
48
9
-27
-48
-62
-78
-90
-90
-83
-78
-87
-101
-92
-92
-124
-138
-110
-92
-92
-87
-76
-73
-64
-50
-43
-46
-48
-41
-30
-30
-27
-18
-18
-13
-2
6
16
9
4
18
30
25
30
34
34
32
20
23
32
25
25
50
55
48
62
62
36
36
55
57
53
55
60
39
-48
-106
76
568
1190
1437
963
177
-173
-36
9
-104
-104
-78
-106
-108
-76
-53
-39
-25
-25
-30
-13
6
27
48
43
39
73
113
127
134
129
101
76
69
57
25
-20
-64
-94
-110
-115
-127
-145
-159
-161
-152
-131
-117
-113
-106
-87
-67
-62
-67
-62
-53
-48
-46
-36
-34
-39
-39
-34
-27
-20
-18
-20
-18
-11
2
9
6
6
11
18
6
-16
-25
-23
-16
2
18
16
18
27
16
9
25
34
25
25
32
18
-55
-159
-106
318
1007
1439
1178
383
-203
-166
-34
-140
-173
-131
-168
-180
-143
-127
-115
-94
-78
-60
-36
-13
6
27
57
85
106
134
168
180
175
173
166
147
127
99
60
16
-27
-60
-76
-85
-90
-94
-101
-113
-127
-145
-150
-140
-150
-168
-161
-147
-147
-157
-157
-159
-164
-164
-159
-161
-161
-154
-152
-152
-138
-124
-127
-143
-166
-164
-138
-131
-129
-115
-115
-124
-115
-99
-90
-87
-83
-67
-53
-48
-43
-36
-30
-6
13
16
20
27
20
11
18
34
39
36
39
39
-18
-117
-78
316
1016
1555
1439
644
-122
-194
-30
-136
-187
-99
-99
-120
-73
-43
-36
-13
2
6
25
57
85
104
122
136
159
191
221
240
231
221
224
212
194
182
157
110
71
55
48
18
-25
-48
-32
-13
-4
6
6
6
25
43
48
43
36
34
34
32
36
27
9
9
25
30
20
11
2
-9
-18
-36
-50
-53
-57
-60
-71
-87
-87
-83
-87
-78
-60
-50
-46
-43
-43
-34
-23
-16
-27
-62
-80
-64
-48
-39
-34
-34
-30
-18
-6
0
4
-2
-13
-4
16
27
27
27
34
39
27
30
39
34
32
41
39
-16
-143
-177
124
760
1361
1409
758
-25
-221
-36
-64
-157
-90
-55
-85
-80
-57
-46
-32
-16
0
9
4
9
34
62
85
110
143
168
191
208
208
194
184
171
159
147
117
85
69
48
25
13
11
13
20
23
23
27
36
48
57
57
55
46
39
43
46
41
39
39
32
30
25
9
-4
-11
-20
-27
-46
-80
-85
-69
-71
-73
-62
-55
-55
-60
-71
-67
-57
-50
-41
-34
-46
-64
-67
-53
-43
-39
-36
-30
-25
-20
-4
9
9
13
20
23
27
34
39
39
39
48
62
64
67
76
67
55
71
80
55
36
48
64
67
67
57
2
-101
-97
217
834
1398
1375
686
-13
-124
36
-20
-101
-36
-16
-32
-9
-18
-55
-43
-18
-20
-6
16
23
43
78
101
120
127
129
157
171
152
131
90
39
32
32
2
-32
-60
-87
-108
-120
-122
-136
-145
-131
-110
-97
-90
-87
-92
-87
-76
-67
-50
-46
-57
-57
-48
-43
-36
-36
-46
-46
-32
-20
-13
-13
-16
-16
-6
4
11
6
4
13
27
34
34
34
30
20
16
27
39
30
23
34
46
48
36
0
-39
-48
-34
-23
-18
-13
-11
-2
4
9
18
20
20
30
43
60
64
53
60
69
60
43
32
27
34
43
43
2
-101
-143
90
686
1365
1550
977
117
-238
-69
-34
-157
-129
-76
-99
-101
-76
-76
-85
-73
-53
-41
-20
-2
4
13
23
46
83
104
120
143
150
138
131
122
99
62
11
-27
-53
-101
-140
-138
-134
-131
-117
-106
-99
-83
-67
-53
-41
-36
-23
-11
-9
-13
-16
-18
-11
-2
0
-4
-4
-2
4
11
11
13
20
23
27
43
48
43
41
43
50
55
55
57
62
64
71
78
78
71
71
67
57
60
69
67
55
55
64
67
60
43
16
11
27
9
-20
-18
-4
-2
2
4
-13
-46
-73
-67
-43
-41
-43
-30
-13
-13
-16
-27
-67
-99
-90
-73
-69
-60
-69
-110
-196
-247
-46
531
1231
1490
1005
140
-284
-134
-87
-219
-175
-101
-127
-115
-80
-78
-64
-30
-11
2
13
20
34
60
90
113
131
157
182
198
208
210
194
175
166
152
124
85
30
0
4
0
-9
-9
-9
-9
2
20
34
36
30
41
57
50
39
39
34
32
43
48
41
13
-18
-18
0
2
2
-2
-4
6
20
23
25
23
25
32
36
43
48
41
43
53
57
60
67
69
50
41
57
71
69
64
64
64
69
73
69
55
55
55
53
60
64
34
11
34
50
23
13
13
-20
-43
-30
-20
-20
-13
-18
-73
-180
-212
27
596
1222
1363
785
-4
-265
-87
-92
-210
-154
-122
-182
-177
-127
-115
-108
-83
-64
-50
-27
-2
18
39
67
99
124
147
180
201
196
182
173
164
136
76
16
-11
-30
-60
-76
-80
-85
-78
-73
-71
-60
-60
-78
-85
-67
-57
-60
-53
-36
-32
-32
-30
-30
-30
-34
-50
-64
-64
-62
-67
-62
-57
-60
-57
-50
-57
-60
-50
-46
-53
-57
-53
-41
-41
-53
-62
-85
-104
-87
-69
-73
-71
-60
-48
-32
-20
-20
-18
-16
-9
4
11
13
13
-9
-25
-6
4
-2
0
6
-23
-110
-157
30
547
1204
1437
878
18
-314
-145
-117
-231
-184
-129
-154
-145
-101
-92
-94
-83
-69
-50
-23
-2
18
48
69
90
127
164
194
212
210
196
191
189
173
150
110
71
46
23
4
-16
-53
-73
-53
-39
-36
-23
-25
-27
-2
23
34
30
18
23
43
55
50
46
36
36
50
57
57
60
55
48
60
67
48
18
13
23
36
48
50
43
41
48
46
43
46
46
36
41
62
71
71
67
64
67
76
90
92
85
80
83
87
99
113
101
80
92
115
101
60
27
25
41
48
46
-4
-124
-182
36
621
1326
1541
945
62
-288
-131
-115
-242
-214
-171
-194
-171
-131
-131
-131
-106
-80
-60
-43
-48
-50
-20
13
41
69
97
124
131
122
129
127
106
90
73
48
20
-6
-27
-39
-50
-57
-48
-39
-39
-34
-20
-4
6
9
11
25
34
39
41
46
53
55
48
43
41
27
20
30
32
27
34
43
46
46
43
48
34
2
-2
11
11
16
30
30
27
36
46
46
46
43
34
11
9
25
27
20
20
16
16
25
23
25
41
41
36
41
46
53
78
90
83
83
76
60
64
71
67
71
76
60
-4
-94
-41
365
1065
1571
1412
619
-108
-168
-11
-108
-166
-92
-87
-108
-80
-53
-41
-30
-23
-23
-16
2
9
16
30
48
73
104
129
147
136
94
67
62
27
-11
-27
-55
-99
-124
-131
-136
-152
-152
-129
-115
-110
-99
-87
-80
-64
-53
-46
-48
-71
-92
-78
-60
-55
-50
-55
-60
-46
-36
-36
-32
-36
-41
-30
-13
-16
-27
-39
-36
-27
-16
-11
-13
-13
-11
-6
0
6
6
0
0
6
9
13
11
2
2
18
23
11
2
0
4
9
2
-25
-50
-64
-71
-69
-57
-69
-108
-129
-110
-97
-94
-97
-104
-97
-76
-55
-43
-50
-67
-62
-41
-27
-16
-11
-39
-127
-198
-53
457
1162
1520
1150
295
-254
-166
-69
-189
-194
-134
-150
-159
-143
-136
-120
-90
-71
-60
-43
-25
-4
18
43
62
85
120
152
173
180
173
164
161
154
129
104
64
6
-36
-55
-53
-53
-55
-50
-41
-34
-20
-16
-39
-53
-36
-27
-25
-11
2
9
11
4
6
16
11
11
20
20
18
25
25
34
46
30
11
11
18
34
41
34
53
69
41
18
53
94
69
57
85
85
87
108
113
110
115
122
122
122
134
136
131
150
164
164
168
157
131
129
143
150
147
152
159
161
152
122
83
60
69
80
80
67
-4
-145
-198
53
677
1358
1516
915
60
-258
-80
-76
-203
-154
-97
-124
-122
-90
-78
-57
-25
-16
4
32
41
64
104
127
150
182
210
233
261
272
268
254
242
238
224
187
147
122
94
76
76
73
64
62
64
48
23
30
55
57
53
71
87
87
85
76
71
87
99
94
83
71
67
71
71
76
78
67
53
57
73
69
27
-16
-23
-13
-23
-32
-32
-43
-46
-30
-18
-16
-23
-30
-27
-16
-4
2
-4
-6
-4
-6
-2
11
16
9
20
32
18
-2
-11
-16
-18
-13
-11
-25
-99
-208
-161
210
845
1333
1178
395
-298
-318
-147
-247
-305
-224
-212
-226
-187
-166
-161
-138
-120
-106
-87
-67
-50
-27
-4
25
60
87
99
117
131
122
90
43
20
25
4
-36
-62
-87
-113
-122
-117
-110
-113
-108
-90
-76
-69
-53
-41
-34
-30
-30
-23
-2
0
-11
-9
-4
-11
-16
-18
-18
-18
-18
-18
-50
-110
-127
-97
-92
-92
-73
-69
-67
-50
-43
-41
-32
-27
-20
-11
0
11
11
11
18
11
-6
0
9
2
4
6
-20
-85
-171
-110
293
949
1389
1148
369
-191
-131
11
-101
-157
-117
-136
-134
-101
-106
-104
-76
-60
-53
-30
-9
0
18
46
62
78
99
92
94
120
127
110
101
85
41
-20
-57
-73
-106
-136
-140
-145
-140
-113
-108
-117
-101
-78
-67
-55
-48
-43
-30
-16
-11
-11
-9
-16
-23
-23
-20
-20
-30
-34
-18
-6
-6
0
4
-2
0
9
16
27
30
30
41
53
60
48
0
-41
-25
-4
-6
-4
0
2
-27
-122
-145
113
697
1308
1377
730
-20
-214
-55
-90
-196
-150
-110
-129
-113
-80
-64
-46
-23
-9
-6
11
36
57
78
97
115
147
180
203
214
210
187
161
140
122
94
55
16
-11
-25
-25
-30
-39
-43
-34
-16
-4
2
2
0
0
4
11
11
0
-6
-4
-2
-4
-32
-80
-104
-97
-106
-136
-173
-208
-201
-180
-173
-168
-161
-157
-157
-161
-180
-187
-168
-150
-143
-138
-122
-108
-110
-122
-122
-108
-94
-97
-97
-94
-145
-242
-221
122
788
1356
1275
522
-214
-316
-147
-217
-286
-208
-182
-205
-182
-152
-143
-124
-104
-92
-76
-48
-25
-6
20
53
87
117
136
152
164
168
166
157
145
124
87
46
23
6
-11
-23
-46
-76
-71
-46
-43
-53
-62
-62
-43
-27
-25
-11
0
0
9
18
11
4
2
4
11
23
25
27
30
16
2
6
25
41
43
41
53
60
48
39
32
20
25
39
41
27
-27
-115
-94
226
864
1416
1368
658
-94
-226
-53
-122
-205
-131
-110
-145
-131
-110
-101
-83
-57
-43
-30
-11
11
39
67
92
104
106
115
136
147
143
117
69
43
48
34
-4
-34
-53
-60
-53
-41
-36
-34
-27
-18
-6
9
23
20
18
32
46
48
46
43
41
46
53
53
34
0
-20
-4
9
16
23
23
23
30
39
46
41
30
32
53
69
60
46
50
55
48
43
53
50
39
46
62
48
-23
-104
-34
404
1111
1523
1229
413
-187
-124
11
-108
-136
-101
-150
-154
-106
-92
-85
-67
-67
-53
-25
-9
2
20
27
32
50
78
85
73
71
80
76
67
55
27
0
-9
-20
-41
-57
-67
-69
-60
-46
-32
-20
-16
-18
-20
-18
-11
-6
-11
-20
-11
4
6
2
4
2
0
6
11
13
13
-11
-34
-23
-9
-9
-6
2
6
16
16
11
18
34
41
46
46
36
32
39
55
62
23
-9
6
6
-13
-2
16
20
20
13
2
-57
-150
-78
325
979
1444
1231
439
-157
-117
20
-87
-129
-71
-78
-92
-80
-76
-64
-48
-32
-13
-9
-6
-2
2
18
46
67
80
97
110
113
99
62
27
13
9
-9
-32
-53
-73
-92
-104
-104
-97
-85
-78
-76
-64
-43
-27
-23
-25
-30
-34
-30
-16
-13
-46
-85
-80
-57
-57
-69
-92
-122
-113
-87
-87
-85
-76
-71
-57
-46
-43
-39
-27
-18
-18
-20
-18
-16
-20
-16
2
13
18
16
16
36
55
57
57
57
43
36
48
60
53
18
-2
2
-48
-166
-150
210
875
1426
1352
621
-99
-208
-50
-129
-205
-140
-134
-164
-134
-101
-94
-78
-62
-55
-34
-4
13
36
62
69
78
113
147
159
140
97
69
76
76
64
43
16
-11
-34
-48
-50
-50
-55
-48
-27
-11
2
9
6
18
34
41
46
48
43
50
55
50
57
48
13
4
20
30
32
32
27
32
39
39
30
18
20
25
25
39
46
41
36
43
60
67
60
57
62
73
80
83
80
76
73
67
64
67
57
41
43
60
73
64
25
-9
-20
-43
-69
-73
-62
-60
-57
-55
-69
-138
-251
-224
157
871
1460
1379
605
-150
-242
-67
-138
-208
-140
-147
-187
-143
-101
-110
-94
-62
-50
-43
-46
-60
-53
-23
-4
20
60
78
85
97
101
97
83
69
60
53
32
11
-4
-18
-23
-32
-41
-34
-30
-27
-11
-2
-4
6
16
0
-20
-23
-20
-27
-69
-101
-80
-67
-85
-97
-94
-99
-104
-104
-110
-120
-120
-108
-97
-94
-101
-113
-117
-115
-136
-168
-171
-154
-152
-140
-124
-131
-145
-145
-136
-120
-106
-94
-94
-94
-80
-55
-30
-25
-32
-27
-18
-25
-23
-2
2
-6
4
16
-30
-127
-164
71
665
1331
1476
855
48
-194
-27
-43
-145
-85
-43
-71
-50
-16
-4
6
-2
-27
-6
32
53
69
83
106
140
173
196
210
210
205
205
196
171
129
85
69
55
30
9
-6
-25
-32
-18
-2
6
-2
-6
4
18
25
32
34
27
32
36
23
9
-2
-18
-23
-13
-13
-18
-23
-25
-20
-13
-4
-2
-9
-20
-27
-25
-13
-2
0
-2
2
11
20
27
23
16
25
43
53
50
50
46
41
50
73
83
69
60
71
73
60
48
36
32
34
30
-4
-110
-247
-205
231
975
1536
1377
513
-233
-258
-97
-212
-291
-226
-214
-219
-175
-147
-145
-131
-110
-92
-69
-50
-36
-13
18
46
64
85
101
99
90
90
83
64
46
32
13
-6
-34
-67
-87
-90
-97
-104
-97
-87
-80
-71
-62
-57
-57
-64
-71
-71
-69
-67
-64
-69
-80
-99
-113
-122
-136
-161
-161
-140
-134
-122
-104
-99
-90
-73
-64
-57
-46
-36
-34
-25
-13
-2
4
9
18
25
27
34
43
48
57
69
69
69
67
57
67
87
90
83
94
104
87
80
87
97
106
106
97
64
-27
-99
97
695
1414
1675
1171
277
-159
0
53
-80
-53
2
-23
-13
4
-13
-9
13
20
39
67
85
87
99
127
161
187
208
198
159
143
147
124
90
76
69
53
36
23
2
-23
-36
-34
-34
-43
-50
-60
-71
-67
-48
-32
-32
-41
-41
-32
-23
-20
-27
-34
-32
-20
-13
-20
-39
-67
-83
-62
-46
-48
-43
-41
-43
-36
-25
-20
-9
2
-2
-16
-30
-50
-69
-67
-53
-46
-36
-32
-32
-32
-23
-11
4
18
6
-2
11
6
-11
-18
-41
-71
-67
-46
-76
-182
-251
-53
496
1157
1386
859
32
-312
-140
-104
-224
-191
-143
-164
-143
-104
-94
-80
-60
-48
-32
-4
23
43
60
83
115
145
173
196
205
198
184
177
168
150
131
104
62
32
11
-25
-64
-69
-55
-43
-34
-27
-13
-4
-2
4
2
-11
-25
-34
-36
-30
-25
-27
-30
-32
-27
-27
-50
-85
-85
-69
-64
-57
-50
-48
-41
-32
-25
-25
-55
-78
-60
-41
-43
-36
-20
-9
-6
-6
9
36
36
30
41
50
43
39
46
50
57
64
67
27
-85
-134
120
734
1391
1511
885
60
-221
-55
-48
-154
-106
-57
-76
-57
-20
-13
0
30
43
53
73
90
104
131
157
177
203
221
235
249
244
210
157
106
87
90
64
27
6
-6
-16
-11
-9
-18
-36
-50
-34
-11
-16
-25
-25
-18
-16
-11
-6
-9
-13
-9
-6
-18
-34
-55
-73
-76
-80
-85
-83
-90
-94
-87
-106
-129
-127
-122
-127
-117
-99
-94
-94
-94
-94
-90
-78
-69
-64
-69
-73
-64
-50
-53
-55
-57
-57
-46
-25
-16
-34
-46
-30
-30
-43
-32
-11
-18
-16
4
0
-64
-161
-101
348
1086
1562
1349
526
-191
-201
-25
-127
-166
-85
-90
-101
-55
-27
-20
0
9
6
25
57
80
90
106
134
150
152
161
168
164
164
161
152
140
127
108
94
83
71
57
39
30
36
50
62
62
53
53
64
64
48
36
39
39
41
48
41
25
13
4
-4
-6
0
-4
-11
-11
-6
-2
2
6
4
4
11
18
6
-20
-39
-34
-23
-11
-4
-11
-18
-20
-16
-4
4
9
13
20
25
18
-4
-20
-20
-9
6
32
43
39
48
50
34
32
43
43
46
55
60
34
-57
-131
53
621
1298
1520
1000
134
-265
-101
-53
-177
-143
-80
-101
-92
-55
-46
-41
-16
6
16
27
50
71
87
113
138
159
168
175
189
191
175
157
143
122
94
73
46
6
-36
-76
-87
-80
-87
-106
-120
-122
-115
-106
-101
-104
-101
-97
-99
-108
-120
-127
-140
-147
-138
-134
-140
-145
-140
-131
-117
-117
-138
-140
-117
-99
-87
-78
-83
-85
-73
-57
-41
-30
-27
-30
-20
-6
0
2
9
13
18
32
41
46
43
41
50
73
90
85
78
83
73
57
62
71
39
0
11
30
-27
-136
-122
201
818
1345
1245
508
-145
-173
-6
-83
-131
-57
-57
-73
-30
-2
2
16
27
39
60
73
76
92
113
131
166
203
224
233
228
217
212
205
187
166
140
113
90
71
48
18
-4
2
16
18
23
36
36
34
39
39
32
18
-2
-9
0
2
2
-6
-20
-23
-11
-4
-9
-18
-20
-30
-50
-50
-55
-87
-99
-80
-73
-69
-55
-53
-60
-50
-32
-32
-53
-73
-71
-64
-73
-73
-57
-50
-48
-36
-25
-18
-11
6
20
18
30
43
27
16
27
36
36
46
53
25
-67
-138
27
552
1234
1539
1113
286
-159
-41
13
-115
-90
-18
-39
-36
-4
4
11
32
50
62
69
87
113
117
108
122
150
166
184
203
191
136
87
80
73
53
30
11
-6
-36
-67
-76
-94
-122
-117
-94
-92
-92
-78
-73
-73
-67
-53
-39
-41
-41
-30
-25
-25
-18
-20
-34
-41
-39
-27
-16
-16
-20
-23
-16
-2
0
-6
0
0
2
9
11
16
20
16
32
41
23
30
53
57
48
32
2
-9
30
50
27
25
46
32
25
60
73
41
48
85
57
9
18
20
-16
-25
-11
-64
-173
-201
34
651
1358
1502
845
32
-203
-30
-53
-166
-113
-55
-64
-55
-30
-6
-13
-30
11
62
60
69
101
106
106
140
173
168
161
196
205
166
152
134
90
94
87
32
11
-2
-46
-69
-94
-131
-97
-60
-106
-134
-110
-120
-117
-73
-69
-87
-76
-67
-64
-69
-101
-106
-53
-30
-50
-43
-36
-41
-30
-32
-30
-2
-32
-87
-69
-39
-46
-34
-30
-43
-13
23
32
25
9
11
6
2
30
25
-16
0
34
11
-80
-173
-20
536
1257
1530
998
164
-180
-27
20
-99
-80
-13
-53
-90
-48
-6
-2
9
13
20
48
64
85
122
131
129
161
217
219
187
201
217
187
164
159
145
113
64
25
11
4
2
0
6
13
6
-9
-32
-41
-25
-6
13
25
18
9
6
2
-6
-16
-30
-41
-50
-60
-55
-50
-46
-41
-39
-32
-34
-39
-18
-6
-16
-4
23
20
-16
-34
-18
-30
-64
-57
-30
-25
-16
-11
-23
-83
-203
-233
97
822
1472
1439
707
-69
-235
-53
-101
-189
-99
-76
-110
-71
-46
-55
-30
6
11
16
55
76
80
101
122
136
134
136
168
173
134
115
127
115
92
71
36
4
-4
-16
-23
-16
-27
-64
-83
-64
-39
-23
-27
-25
-2
2
-16
-41
-39
-20
-27
-30
-16
-2
2
-16
-36
-30
-9
-23
-55
-57
-41
-32
-9
18
4
-16
-11
-13
-36
-43
-36
-48
-53
-53
-60
-80
-152
-224
-71
478
1197
1465
954
104
-281
-115
-76
-231
-238
-198
-189
-152
-129
-124
-106
-76
-64
-57
-18
23
25
46
92
115
140
159
152
173
191
154
122
94
60
39
62
124
147
122
110
83
11
-48
-99
-136
-87
-50
-85
-120
-154
-140
-60
71
293
568
857
1120
1231
1056
501
286
926
1298
1072
1093
1375
1670
1913
2179
2630
3175
3903
4978
6261
7571
8669
9570
10236
10502
10936
12062
13471
15096
17560
18931
18931
18931
11604
6545
7834
9270
9092
9672
9263
2142
-5276
-3630
-1423
-3244
-3129
-1946
-2172
-2246
-1848
-1874
-1932
-1758
-1719
-1765
-1717
-1647
-1631
-1617
-1597
-1624
-1647
-1638
-1643
-1666
-1664
-1638
-1652
-1666
-1647
-1638
-1629
-1613
-1594
-1573
-1546
-1506
-1509
-1520
-1481
-1469
-1530
-1527
-1509
-1587
-1608
-1532
-1523
-1571
-1569
-1539
-1520
-1516
-1520
-1502
-1467
-1442
-1437
-1419
-1382
-1391
-1446
-1435
-1372
-1365
-1372
-1363
-1379
-1419
-1490
-1580
-1421
-841
-122
184
-224
-1053
-1525
-1372
-1266
-1393
-1342
-1220
-1236
-1241
-1176
-1141
-1123
-1104
-1100
-1065
-1005
-966
-940
-915
-871
-827
-799
-760
-739
-734
-707
-674
-665
-661
-667
-700
-732
-741
-732
-732
-737
-702
-670
-665
-647
-633
-633
-617
-614
-612
-552
-533
-566
-554
-545
-540
-496
-480
-499
-473
-457
-464
-455
-439
-443
-455
-469
-476
-448
-434
-413
-362
-385
-450
-429
-406
-420
-411
-399
-409
-409
-397
-416
-494
-538
-348
189
857
1051
483
-300
-561
-381
-362
-462
-416
-379
-402
-385
-360
-353
-346
-328
-300
-265
-235
-219
-212
-189
-147
-115
-90
-60
-46
-48
-34
-25
-41
-50
-60
-85
-124
-157
-166
-166
-182
-205
-203
-184
-171
-182
-212
-219
-196
-177
-168
-161
-157
-154
-152
-157
-171
-201
-238
-249
-247
-249
-235
-221
-233
-226
-201
-196
-201
-196
-187
-180
-177
-173
-166
-189
-221
-214
-198
-208
-208
-187
-191
-208
-187
-164
-171
-173
-154
-168
-247
-318
-196
265
947
1296
864
46
-351
-219
-154
-265
-242
-173
-189
-191
-166
-161
-154
-124
-127
-152
-154
-134
-110
-92
-73
-46
-16
-2
6
27
34
16
2
0
-2
-34
-104
-154
-161
-173
-180
-171
-171
-184
-182
-159
-138
-136
-129
-115
-113
-113
-94
-87
-101
-104
-99
-108
-115
-120
-122
-120
-115
-108
-99
-101
-97
-78
-71
-78
-69
-64
-62
-48
-41
-46
-36
-20
-18
-11
0
-11
-27
-36
-25
-9
-46
-73
-30
-11
-39
-30
13
30
13
23
53
57
53
62
64
55
85
113
25
-117
-67
422
1236
1738
1426
540
-90
-48
60
-69
-69
20
23
34
83
120
143
157
171
208
238
256
281
295
281
300
348
379
395
397
379
379
395
381
346
314
281
261
233
205
184
152
138
161
164
157
152
140
147
177
189
203
221
224
219
233
251
261
235
173
157
196
196
173
173
173
182
201
205
205
212
196
168
180
198
189
168
143
136
159
175
173
166
164
168
175
173
175
180
177
175
175
175
180
187
184
189
210
214
177
143
145
157
147
124
62
-62
-124
127
801
1539
1712
1060
117
-231
-41
-36
-159
-115
-71
-99
-80
-48
-48
-39
-20
-23
-16
11
32
36
55
80
94
108
122
120
113
108
108
94
76
57
34
4
-23
-55
-92
-120
-131
-143
-154
-177
-205
-210
-196
-182
-177
-171
-159
-157
-154
-143
-134
-145
-164
-164
-175
-205
-214
-208
-205
-212
-212
-201
-184
-180
-187
-205
-226
-214
-198
-196
-191
-177
-171
-159
-157
-157
-147
-157
-175
-164
-150
-150
-129
-106
-117
-120
-106
-131
-171
-171
-161
-168
-173
-194
-286
-355
-173
381
1058
1296
792
-20
-388
-235
-191
-309
-275
-221
-244
-247
-247
-247
-210
-177
-173
-168
-159
-131
-92
-83
-83
-62
-34
-2
30
41
41
39
30
23
13
-18
-71
-124
-164
-177
-182
-187
-187
-182
-171
-145
-122
-108
-104
-94
-73
-55
-46
-41
-46
-55
-55
-43
-34
-41
-55
-57
-48
-39
-30
-30
-46
-55
-53
-43
-32
-27
-43
-48
-32
-20
-32
-46
-64
-78
-55
-32
-39
-60
-94
-129
-122
-108
-120
-120
-117
-138
-214
-293
-171
314
1016
1398
1033
198
-314
-240
-150
-251
-244
-166
-161
-168
-145
-124
-104
-80
-60
-46
-34
-11
16
36
60
78
80
104
143
157
152
150
145
134
127
120
101
71
34
13
13
11
2
-6
2
16
27
39
50
46
41
55
76
80
71
64
60
48
36
36
34
20
16
13
11
2
-32
-69
-60
-41
-39
-32
-30
-50
-76
-78
-73
-85
-94
-87
-85
-85
-78
-69
-53
-41
-48
-46
-27
-36
-67
-62
-43
-41
-32
-46
-140
-240
-110
406
1155
1560
1174
298
-240
-150
-43
-166
-173
-94
-97
-99
-71
-62
-50
-25
-13
0
25
34
36
53
69
85
101
110
134
157
154
143
122
80
62
69
55
23
-23
-71
-87
-104
-140
-147
-152
-177
-159
-122
-117
-108
-97
-99
-87
-73
-71
-73
-78
-80
-76
-76
-78
-76
-78
-76
-67
-62
-64
-64
-64
-64
-60
-62
-71
-78
-80
-80
-85
-83
-76
-83
-85
-71
-67
-76
-92
-117
-120
-106
-122
-134
-104
-92
-106
-97
-69
-67
-78
-85
-80
-67
-53
-71
-166
-263
-124
388
1116
1499
1067
145
-369
-231
-124
-244
-235
-164
-173
-161
-110
-101
-120
-106
-73
-50
-30
-9
2
20
60
90
108
134
152
161
171
175
166
152
138
129
127
115
97
78
48
30
39
48
55
67
71
67
64
71
83
83
69
71
85
87
87
85
76
73
83
85
83
78
69
64
73
85
87
67
43
50
62
60
62
55
39
36
43
41
32
25
20
18
16
11
-6
-39
-64
-62
-41
-25
-39
-71
-69
-48
-46
-43
-50
-129
-249
-194
247
998
1532
1312
476
-198
-217
-73
-194
-277
-208
-189
-194
-161
-145
-143
-115
-87
-64
-46
-39
-25
0
32
60
69
76
99
115
120
127
113
69
32
18
16
6
-9
-27
-48
-64
-71
-69
-71
-87
-87
-62
-41
-41
-48
-36
-23
-27
-32
-41
-80
-108
-97
-85
-94
-94
-83
-87
-94
-83
-64
-53
-55
-53
-39
-27
-16
-9
-30
-50
-48
-36
-36
-43
-43
-23
-2
-6
-11
-9
-20
-32
-34
-25
-16
-18
-18
-11
-20
-36
-27
-16
-30
-60
-92
-168
-270
-166
372
1153
1576
1229
323
-295
-212
-87
-208
-203
-124
-147
-140
-83
-71
-69
-50
-39
-13
16
39
46
27
13
46
90
101
101
115
124
122
113
106
97
99
94
76
60
46
30
11
11
23
27
34
46
46
53
67
76
76
71
69
76
85
87
87
78
67
69
60
32
18
23
27
23
11
-6
-13
-16
-20
-6
4
-2
-2
-2
-16
-13
-6
-27
-41
-32
-30
-27
-18
-16
-18
-16
-20
-25
-4
11
-27
-85
-85
-55
-46
-46
-67
-168
-261
-90
452
1162
1451
915
43
-332
-171
-108
-221
-201
-138
-145
-131
-90
-94
-97
-62
-34
-13
11
25
32
46
73
83
76
80
101
113
104
94
85
64
48
53
53
36
23
6
-11
-23
-18
-4
-2
-2
9
27
48
62
62
53
46
53
60
55
50
43
46
50
48
43
30
13
9
11
4
-13
-46
-64
-46
-23
-34
-55
-60
-62
-76
-80
-60
-48
-55
-62
-60
-53
-55
-64
-62
-50
-46
-43
-67
-157
-261
-235
80
718
1301
1204
425
-231
-261
-106
-175
-226
-147
-120
-138
-117
-90
-83
-67
-39
-27
-16
11
32
41
60
87
115
138
143
145
157
159
147
134
106
85
80
71
46
20
11
6
0
0
0
-25
-39
-25
-9
-4
4
9
9
16
25
25
13
2
6
16
16
11
0
-16
-20
-20
-36
-43
-34
-27
-20
-6
-9
-27
-32
-25
-25
-32
-23
-27
-64
-85
-67
-62
-76
-80
-85
-92
-92
-80
-76
-87
-101
-101
-87
-71
-73
-124
-238
-309
-131
441
1197
1497
973
85
-337
-196
-138
-270
-254
-180
-187
-184
-164
-164
-145
-115
-104
-87
-76
-106
-120
-87
-55
-34
-11
-9
-23
-41
-55
-62
-78
-101
-99
-83
-76
-76
-87
-106
-106
-97
-97
-92
-76
-71
-60
-34
-16
-2
2
4
9
18
23
27
25
11
11
30
39
32
6
-11
4
30
30
23
25
30
34
43
50
53
43
30
30
41
43
34
25
32
48
53
48
43
27
11
6
9
13
16
4
-9
-34
-60
-62
-76
-108
-106
-92
-147
-268
-277
73
801
1439
1426
691
-115
-288
-108
-143
-219
-152
-124
-140
-110
-85
-78
-62
-39
-20
-2
16
27
23
30
62
85
99
124
129
117
120
115
94
85
80
71
67
57
41
30
20
18
23
25
30
41
46
48
57
62
64
71
64
55
53
25
-9
-16
-16
-18
-16
-13
-16
-36
-69
-64
-41
-43
-53
-71
-94
-85
-76
-92
-97
-87
-85
-78
-69
-64
-69
-76
-64
-53
-67
-97
-117
-127
-131
-124
-110
-97
-99
-115
-113
-94
-104
-122
-120
-108
-104
-106
-131
-221
-318
-203
300
1014
1379
956
92
-360
-217
-127
-249
-249
-187
-196
-191
-161
-150
-159
-168
-147
-108
-83
-64
-39
-13
4
25
57
85
83
60
50
53
43
27
13
4
2
0
0
-6
-27
-39
-25
-4
-4
-18
-20
-4
9
23
43
46
25
20
39
48
43
34
23
20
27
39
46
39
25
30
46
48
43
48
43
32
34
34
32
30
20
11
9
9
9
0
-27
-50
-50
-43
-46
-50
-46
-36
-30
-20
-13
-30
-53
-41
-18
-9
-6
-20
-87
-189
-157
212
899
1437
1252
448
-196
-244
-110
-175
-219
-150
-127
-134
-104
-83
-76
-53
-27
-13
2
20
39
67
97
113
120
136
161
173
171
166
147
124
108
97
90
87
67
34
6
-4
6
4
-25
-57
-69
-60
-41
-32
-27
-20
-18
-18
-11
-9
-11
-4
-4
-16
-18
-23
-39
-50
-43
-36
-46
-50
-43
-39
-46
-64
-87
-129
-168
-177
-173
-168
-164
-166
-164
-154
-152
-154
-152
-145
-150
-150
-140
-134
-127
-120
-115
-113
-110
-106
-99
-85
-67
-57
-41
-27
-39
-50
-43
-36
-27
-23
-55
-157
-228
-55
513
1254
1530
996
131
-272
-129
-67
-175
-154
-94
-99
-83
-57
-48
-30
-4
13
36
53
55
71
101
115
117
131
140
145
164
173
157
129
104
97
101
94
73
39
0
-9
-4
-9
-11
-4
9
32
41
43
43
36
23
23
39
41
27
16
9
6
16
11
-11
-25
-34
-46
-36
-39
-76
-104
-92
-69
-62
-64
-64
-57
-53
-46
-32
-32
-41
-36
-20
-16
-4
6
-2
-2
11
2
-18
-13
-9
-4
13
27
30
27
18
13
27
34
36
39
9
-87
-180
-20
554
1294
1601
1134
254
-219
-83
-32
-208
-198
-106
-117
-113
-83
-90
-78
-36
-18
-13
-23
-39
-11
27
43
48
46
48
71
92
94
80
55
36
32
32
32
30
9
-9
-2
6
9
9
6
9
9
2
-4
-2
2
0
-4
4
16
6
-2
0
-9
-27
-30
-34
-53
-53
-41
-41
-48
-48
-48
-46
-39
-32
-27
-32
-36
-27
-18
-13
-16
-23
-27
-25
-16
-4
-18
-53
-67
-48
-34
-18
-20
-46
-43
-23
-27
-39
-36
-30
-23
-16
-30
-104
-198
-83
436
1153
1493
1100
258
-242
-129
-50
-173
-152
-83
-99
-99
-80
-64
-32
-9
-2
16
39
43
60
90
104
117
134
145
157
159
159
145
117
94
80
71
69
67
46
11
-11
-9
-2
0
6
9
-16
-39
-30
-18
-20
-25
-36
-50
-62
-78
-83
-73
-83
-85
-78
-90
-99
-99
-110
-110
-97
-92
-99
-99
-94
-101
-110
-106
-101
-108
-99
-67
-43
-48
-53
-43
-41
-46
-41
-36
-46
-73
-87
-90
-154
-247
-147
321
1003
1363
1033
249
-249
-154
-53
-166
-161
-99
-134
-147
-101
-80
-73
-50
-41
-36
-11
16
34
48
36
23
41
67
62
25
-18
-53
-57
-57
-67
-76
-90
-104
-115
-122
-124
-120
-124
-129
-134
-129
-110
-104
-115
-110
-90
-85
-90
-83
-80
-73
-62
-60
-55
-50
-60
-67
-64
-57
-55
-60
-64
-50
-36
-27
-18
-32
-60
-76
-78
-76
-90
-108
-104
-97
-138
-249
-268
41
677
1241
1178
457
-184
-221
-73
-138
-177
-122
-145
-182
-140
-108
-101
-80
-83
-106
-92
-53
-27
4
30
30
34
62
87
104
99
76
62
64
53
32
23
11
-16
-27
-16
-13
-23
-16
2
13
16
20
25
20
16
23
30
25
18
16
13
11
0
-13
-6
4
4
11
18
9
9
9
0
0
6
6
6
16
11
-20
-117
-210
-32
540
1211
1356
734
-32
-221
-36
-53
-145
-83
-57
-104
-101
-67
-57
-87
-110
-80
-64
-55
-23
-32
-62
-41
-20
-23
-6
6
-2
-4
-11
-30
-41
-67
-92
-80
-67
-83
-120
-136
-97
-53
-73
-108
-92
-69
-64
-55
-46
-34
-25
-30
-16
9
6
2
25
27
18
41
64
67
53
41
43
39
30
43
71
76
64
71
92
83
57
57
62
64
76
71
2
-101
-73
314
1049
1636
1523
670
-131
-171
25
-90
-159
-62
-46
-62
-20
-9
-16
13
46
71
87
80
92
136
147
138
154
171
159
157
173
171
152
124
92
87
99
87
64
46
36
41
53
57
55
36
27
39
4
-43
-41
-25
-48
-60
-43
-34
-36
-43
-50
-60
-62
-46
-36
-55
-53
-25
-18
-27
-27
-27
-11
16
16
11
9
-16
-27
2
16
-4
-30
-55
-78
-143
-212
-76
429
1116
1407
956
134
-279
-150
-104
-214
-173
-110
-134
-138
-106
-83
-69
-48
-27
-18
-2
20
43
71
92
101
113
124
122
97
69
55
41
30
27
25
4
-25
-43
-43
-39
-57
-92
-94
-73
-62
-62
-60
-64
-64
-57
-60
-71
-85
-92
-94
-97
-99
-94
-99
-110
-104
-101
-122
-143
-168
-198
-210
-224
-235
-214
-198
-205
-212
-208
-205
-210
-217
-212
-201
-201
-198
-201
-263
-374
-362
-23
637
1197
1072
300
-325
-323
-182
-281
-335
-251
-231
-242
-212
-194
-191
-164
-127
-108
-85
-62
-41
-11
13
27
53
78
90
101
97
71
55
48
34
41
48
18
-11
-11
0
6
16
18
13
23
39
30
6
2
-13
-48
-53
-32
-27
-32
-32
-34
-32
-23
-36
-57
-55
-41
-32
-30
-25
-23
-23
-27
-36
-39
-43
-55
-60
-71
-90
-80
-71
-101
-120
-113
-99
-78
-64
-78
-117
-205
-261
-48
538
1206
1377
815
18
-270
-99
-92
-205
-152
-90
-110
-106
-80
-62
-41
-20
-4
16
32
39
50
67
90
120
129
124
134
136
120
94
73
67
73
73
57
23
-23
-36
-23
-11
-6
-4
-9
-4
6
18
18
-9
-48
-57
-60
-94
-120
-131
-145
-138
-120
-115
-113
-110
-124
-129
-120
-117
-134
-152
-154
-145
-134
-129
-136
-143
-134
-117
-115
-122
-124
-124
-122
-110
-87
-73
-80
-94
-110
-129
-131
-120
-122
-127
-122
-129
-203
-316
-277
138
864
1395
1211
399
-270
-279
-124
-214
-244
-166
-171
-182
-136
-104
-90
-87
-108
-104
-67
-53
-64
-64
-43
-18
11
41
60
60
48
36
23
4
-6
-16
-13
-13
-30
-43
-39
-34
-36
-32
-25
-30
-30
-27
-34
-34
-27
-25
-34
-53
-62
-69
-69
-62
-57
-62
-62
-55
-41
-36
-48
-48
-30
-23
-34
-32
-13
-9
-9
2
9
4
4
9
16
20
20
27
39
34
30
43
46
6
-41
-50
-25
-13
-16
-20
-32
-27
-4
2
-6
-9
-36
-143
-208
23
628
1315
1502
917
85
-221
-69
-69
-182
-136
-83
-104
-99
-80
-97
-115
-94
-62
-55
-57
-32
4
27
41
50
55
64
60
43
23
-13
-69
-110
-106
-92
-106
-127
-136
-134
-129
-120
-115
-117
-113
-94
-80
-78
-85
-104
-120
-113
-97
-87
-85
-117
-157
-145
-122
-122
-117
-110
-108
-94
-76
-69
-73
-76
-67
-48
-36
-30
-27
-25
-23
-18
-4
9
16
11
-2
-4
9
25
18
11
27
48
48
46
55
50
41
50
62
60
50
34
11
-76
-187
-64
455
1176
1550
1162
307
-208
-117
-43
-175
-180
-134
-161
-161
-145
-159
-150
-113
-90
-90
-76
-41
-16
2
25
39
55
85
104
101
71
11
-20
-20
-23
-32
-39
-50
-57
-60
-69
-71
-57
-60
-69
-55
-30
-25
-27
-20
-11
-9
-6
-4
-6
0
4
-2
-4
4
4
0
6
16
16
13
16
23
16
11
25
34
30
32
30
13
13
23
11
-6
-23
-20
-2
2
-16
-30
-23
-9
-11
-13
-11
-11
-13
-9
-9
-13
-9
-18
-39
-36
-57
-106
-110
-87
-90
-94
-122
-242
-335
-138
464
1220
1520
1019
122
-332
-194
-131
-279
-284
-205
-201
-198
-161
-143
-134
-106
-83
-62
-32
-9
11
41
69
83
101
124
136
134
115
78
48
34
27
25
11
-20
-41
-43
-41
-43
-41
-34
-30
-25
-9
9
20
23
23
20
25
41
50
46
32
25
34
41
30
25
20
-2
-18
-6
2
-13
-53
-76
-64
-46
-39
-53
-67
-64
-64
-73
-76
-76
-73
-67
-60
-55
-48
-50
-55
-43
-32
-30
-23
-23
-25
-23
-27
-36
-27
-23
-20
-6
6
16
2
-39
-53
-25
-9
-4
-9
-69
-191
-214
104
795
1446
1483
778
-27
-208
-25
-76
-173
-101
-64
-85
-53
-34
-62
-46
-6
13
39
62
64
83
122
140
154
175
182
182
182
177
152
92
34
30
43
39
20
-2
-18
-25
-18
0
6
-6
-9
-4
-9
-4
-2
-18
-25
-6
-2
-11
-2
-13
-50
-71
-69
-71
-87
-94
-92
-90
-80
-76
-85
-90
-80
-76
-76
-69
-57
-57
-60
-55
-50
-69
-113
-134
-115
-106
-104
-90
-85
-83
-73
-69
-53
-46
-62
-62
-41
-20
-16
-25
-13
-6
-25
-32
-23
-50
-90
-78
-67
-136
-258
-242
134
825
1363
1227
457
-219
-270
-122
-205
-251
-175
-171
-189
-171
-177
-177
-145
-136
-131
-101
-71
-50
-27
-9
16
48
76
99
108
104
94
85
67
48
23
0
-6
-18
-43
-62
-60
-64
-69
-60
-46
-41
-32
-23
-16
-9
-9
-18
-27
-36
-43
-48
-48
-57
-67
-62
-53
-50
-48
-62
-106
-124
-113
-108
-108
-104
-99
-85
-71
-64
-62
-53
-41
-39
-48
-67
-73
-62
-55
-48
-25
-2
-4
-16
-9
11
16
0
0
11
9
13
23
-4
-108
-205
-69
422
1104
1465
1072
228
-228
-90
2
-117
-113
-48
-64
-67
-25
0
0
6
30
57
78
92
104
120
147
182
212
233
242
235
212
198
187
150
92
53
41
20
-4
-20
-48
-57
-43
-46
-55
-69
-80
-69
-53
-48
-43
-39
-46
-60
-71
-71
-78
-115
-154
-150
-134
-147
-164
-161
-159
-152
-136
-129
-124
-117
-115
-110
-104
-94
-92
-99
-92
-73
-64
-64
-62
-67
-73
-62
-34
-23
-36
-41
-27
-30
-43
-39
-36
-50
-62
-69
-104
-198
-265
-50
547
1243
1451
878
25
-321
-164
-134
-233
-189
-164
-210
-189
-140
-122
-122
-134
-124
-90
-55
-32
-11
11
41
71
104
127
129
131
134
115
101
99
78
48
36
18
-20
-39
-41
-43
-41
-25
-6
2
4
18
30
20
23
43
39
23
23
23
20
30
20
-2
-4
0
-2
-11
-27
-34
-36
-39
-34
-36
-48
-43
-34
-32
-27
-25
-34
-57
-69
-60
-50
-71
-99
-87
-71
-73
-69
-57
-50
-48
-46
-43
-34
-32
-23
-4
-11
-27
-20
-9
-2
6
16
-16
-127
-210
-30
563
1319
1627
1144
249
-228
-87
-2
-136
-134
-69
-76
-67
-34
-25
-18
-9
6
32
53
64
85
110
138
168
194
205
212
221
221
205
182
143
90
57
30
-23
-53
-48
-64
-80
-71
-60
-53
-48
-41
-30
-20
-13
-13
-46
-83
-73
-41
-39
-41
-43
-62
-71
-57
-57
-64
-71
-73
-53
-36
-36
-39
-57
-64
-62
-69
-71
-71
-76
-71
-60
-53
-41
-39
-57
-67
-50
-36
-30
-27
-32
-30
-18
-9
-2
0
-4
-6
-2
11
32
36
32
39
27
-11
-23
-6
-16
-13
6
-4
-78
-189
-154
272
1019
1548
1386
584
-159
-219
-39
-122
-175
-101
-104
-115
-67
-41
-60
-78
-67
-30
-2
16
34
55
78
117
152
168
187
203
196
180
168
159
134
113
99
73
39
27
18
-2
-13
-9
2
9
11
23
30
34
50
57
55
57
60
53
25
-13
-23
-13
-13
-16
-9
-11
-16
-16
-32
-48
-46
-53
-69
-73
-67
-64
-62
-64
-62
-46
-39
-48
-48
-43
-39
-34
-34
-32
-39
-67
-78
-69
-62
-55
-46
-39
-27
-20
-30
-34
-27
-23
-11
2
6
2
0
-6
-11
-4
4
-2
-50
-164
-265
-161
309
1037
1479
1162
328
-235
-175
-62
-194
-217
-138
-145
-147
-110
-106
-101
-76
-71
-71
-53
-27
0
23
43
71
97
120
147
166
168
154
124
97
83
64
34
0
-36
-64
-83
-106
-113
-120
-159
-191
-171
-147
-145
-157
-168
-154
-122
-110
-127
-147
-154
-154
-150
-145
-140
-145
-150
-145
-131
-122
-113
-108
-108
-101
-87
-83
-73
-69
-90
-108
-92
-62
-62
-78
-76
-64
-57
-43
-43
-57
-50
-32
-27
-16
2
13
16
11
23
43
25
-6
4
27
23
32
46
2
-113
-159
78
658
1331
1511
903
76
-189
-16
-34
-159
-104
-43
-67
-57
-53
-83
-73
-34
-13
6
23
32
55
94
127
150
182
212
228
249
256
240
203
177
157
104
41
-2
-39
-76
-101
-104
-94
-92
-94
-80
-64
-67
-67
-62
-73
-78
-62
-48
-53
-62
-60
-60
-67
-60
-53
-60
-60
-53
-48
-43
-39
-39
-36
-25
-18
-27
-55
-92
-101
-85
-76
-73
-64
-55
-48
-43
-36
-27
-39
-73
-87
-73
-60
-53
-48
-39
-27
-34
-34
-4
2
-30
-39
-27
-41
-67
-69
-87
-189
-288
-161
337
1074
1511
1167
286
-288
-212
-101
-221
-228
-157
-168
-175
-147
-131
-115
-101
-85
-60
-48
-34
-4
25
53
85
120
150
182
198
187
161
145
147
134
99
62
25
-16
-39
-46
-64
-80
-78
-69
-57
-48
-46
-41
-41
-48
-43
-30
-30
-53
-87
-92
-73
-73
-99
-124
-124
-115
-110
-108
-108
-97
-87
-83
-69
-60
-57
-50
-43
-32
-23
-13
-9
-11
-4
11
18
20
20
23
34
46
53
55
50
50
60
69
64
53
43
41
48
62
71
62
60
80
90
85
99
106
80
64
76
90
92
94
73
-9
-113
-55
381
1141
1689
1509
674
-73
-129
43
-71
-168
-94
-71
-85
-73
-92
-99
-55
-32
-30
-4
20
41
69
104
138
154
161
191
219
226
224
203
161
129
120
99
50
-13
-69
-85
-90
-120
-150
-150
-150
-150
-134
-117
-104
-99
-101
-83
-64
-60
-53
-50
-57
-62
-50
-41
-46
-53
-48
-46
-36
-20
-20
-34
-30
-18
-9
-2
0
-6
-27
-50
-50
-34
-23
-27
-34
-20
0
-6
-39
-60
-55
-36
-23
-16
-16
-16
-6
2
9
13
20
20
16
27
43
46
41
34
32
36
48
53
50
53
55
46
39
41
43
50
57
41
-43
-147
-67
399
1153
1659
1428
570
-136
-134
25
-92
-131
-50
-60
-69
-23
-6
-11
-4
6
16
20
23
39
53
69
97
124
147
171
182
191
194
180
150
101
43
11
-18
-69
-99
-113
-136
-150
-140
-127
-120
-117
-108
-99
-106
-110
-92
-80
-78
-62
-46
-50
-60
-50
-39
-41
-50
-48
-43
-41
-36
-27
-23
-20
-18
-18
-11
-2
-2
2
9
-6
-2
23
27
18
9
6
16
23
6
-20
-23
-6
-4
-4
11
18
6
6
23
34
32
9
-32
-46
-23
-6
-9
-20
-41
-60
-48
-20
-23
-50
-55
-39
-41
-46
-41
-94
-214
-228
50
658
1324
1449
797
-23
-263
-85
-99
-221
-184
-140
-157
-140
-122
-134
-122
-85
-62
-57
-57
-53
-39
-20
-6
11
27
39
62
85
85
64
36
0
-34
-53
-73
-104
-140
-166
-173
-177
-173
-152
-145
-143
-120
-99
-87
-76
-76
-73
-57
-46
-34
-23
-25
-36
-41
-43
-48
-60
-94
-120
-94
-69
-64
-57
-50
-43
-39
-30
-16
-11
-16
-11
0
9
20
25
25
30
46
50
50
57
57
48
53
67
67
50
43
53
64
71
73
64
41
20
36
60
53
57
69
53
43
62
71
62
62
50
-6
-110
-106
235
942
1580
1548
788
-16
-196
-34
-92
-177
-104
-85
-122
-99
-80
-97
-85
-64
-50
-27
-9
0
13
13
16
53
94
120
145
157
152
154
145
115
87
64
36
0
-34
-60
-90
-108
-97
-83
-78
-67
-55
-48
-32
-32
-57
-64
-76
-104
-94
-73
-73
-69
-67
-67
-57
-50
-53
-57
-55
-48
-41
-27
-20
-30
-32
-36
-43
-39
-32
-34
-34
-30
-27
-18
-9
-9
-16
-11
0
2
-6
-11
-11
-6
0
4
-6
-39
-57
-62
-64
-64
-62
-67
-57
-32
-23
-32
-41
-48
-60
-62
-46
-32
-30
-30
-34
-101
-205
-150
288
1040
1573
1370
515
-217
-247
-87
-187
-217
-127
-127
-154
-136
-115
-104
-90
-76
-69
-62
-48
-23
13
41
57
83
120
150
175
194
180
157
150
143
124
99
67
30
-2
-13
-9
-25
-43
-34
-11
2
13
23
18
20
32
36
25
2
-30
-36
-18
-6
-4
-4
-11
-11
6
13
-2
-23
-25
-13
-4
2
11
11
9
18
30
32
30
27
30
34
41
57
64
50
41
46
57
62
62
57
55
64
71
76
78
78
71
67
76
94
101
97
97
106
99
83
78
78
83
90
90
60
-41
-129
11
529
1252
1627
1211
279
-272
-140
-39
-205
-244
-175
-173
-166
-127
-117
-136
-138
-113
-92
-87
-85
-78
-60
-36
-13
16
46
69
92
101
106
104
76
36
11
-23
-69
-101
-129
-154
-171
-177
-175
-161
-152
-145
-134
-122
-117
-115
-108
-104
-99
-92
-90
-90
-94
-92
-90
-92
-80
-73
-80
-71
-62
-76
-80
-67
-64
-57
-36
-30
-32
-30
-27
-9
9
2
-18
-36
-53
-71
-78
-64
-48
-41
-34
-23
-13
-13
-9
11
20
13
25
36
25
6
0
18
41
34
13
-23
-120
-150
122
746
1402
1504
850
43
-182
-6
-30
-129
-60
-18
-48
-34
-4
4
16
43
64
67
67
78
99
120
129
150
184
221
254
270
265
235
191
159
138
106
55
6
-25
-53
-76
-104
-140
-182
-191
-164
-145
-129
-110
-106
-94
-67
-57
-57
-57
-62
-69
-62
-48
-39
-41
-46
-43
-27
-11
-6
-16
-23
-11
6
13
16
16
9
16
39
39
39
46
43
43
48
46
41
25
-4
-6
0
-6
2
16
6
4
16
27
39
46
48
55
57
50
46
48
53
53
55
30
-71
-194
-147
281
1049
1638
1504
663
-124
-201
-16
-99
-171
-97
-85
-108
-69
-39
-46
-36
-6
11
32
46
34
30
60
90
106
129
150
164
184
187
173
154
134
108
71
23
-18
-53
-85
-113
-131
-138
-136
-129
-120
-108
-99
-85
-67
-53
-53
-50
-43
-30
-23
-20
-18
-18
-30
-25
-13
-20
-46
-53
-41
-32
-25
-18
-16
-13
-16
-13
-16
-25
-25
-16
-13
-4
2
4
13
20
18
13
-6
-39
-30
-6
-11
-13
2
9
4
9
18
25
23
20
36
55
48
48
57
43
16
9
18
20
20
20
-18
-129
-177
76
716
1430
1608
1003
122
-226
-60
-39
-161
-115
-55
-78
-76
-60
-71
-67
-46
-36
-18
13
39
50
62
69
97
140
159
166
180
177
159
152
147
131
99
50
2
-34
-64
-99
-147
-187
-196
-177
-152
-145
-173
-210
-198
-168
-159
-150
-145
-154
-157
-152
-150
-143
-140
-150
-138
-115
-115
-124
-129
-124
-110
-92
-83
-90
-99
-94
-87
-78
-71
-76
-78
-71
-76
-92
-99
-99
-101
-97
-83
-83
-97
-113
-113
-101
-97
-97
-87
-80
-85
-85
-69
-60
-55
-46
-32
-25
-18
-4
13
6
-16
-18
4
18
25
25
-2
-85
-168
-78
360
1074
1539
1257
413
-208
-187
-50
-152
-184
-101
-87
-94
-64
-43
-32
-6
16
27
41
64
97
122
143
168
184
201
226
235
219
212
203
173
152
131
76
9
-34
-69
-97
-104
-104
-113
-113
-99
-85
-71
-50
-36
-36
-32
-20
-11
-6
-4
-4
-4
2
6
6
4
6
9
9
13
16
6
-2
-2
2
2
-16
-39
-30
-23
-30
-23
-6
2
9
11
16
27
30
32
46
48
41
43
53
55
62
69
69
48
20
25
41
30
13
25
30
23
30
41
50
64
67
62
67
60
39
16
-2
6
18
11
-36
-143
-191
62
723
1467
1682
1086
152
-240
-60
-39
-166
-122
-87
-124
-108
-76
-73
-55
-32
-20
-2
18
4
-23
2
48
57
71
99
120
136
140
129
113
94
78
60
39
11
-20
-57
-94
-113
-110
-124
-136
-122
-97
-85
-69
-50
-53
-53
-39
-20
-4
0
-6
-16
-9
4
16
13
-2
-6
6
16
23
30
16
11
30
46
46
48
41
25
25
39
53
60
50
39
48
69
78
71
62
64
71
78
90
87
78
80
87
87
94
97
80
80
92
99
97
73
25
0
-11
-30
-23
2
6
6
16
18
13
9
6
9
11
25
27
-43
-171
-194
101
776
1472
1601
961
69
-256
-87
-97
-228
-191
-150
-166
-147
-124
-136
-134
-106
-76
-53
-39
-23
0
25
50
83
117
136
157
180
189
182
166
147
129
115
90
53
18
-11
-36
-48
-36
-30
-34
-27
-30
-57
-57
-48
-80
-97
-73
-71
-78
-85
-110
-120
-104
-97
-90
-90
-94
-87
-76
-69
-67
-64
-67
-67
-60
-57
-55
-48
-39
-34
-43
-39
-32
-41
-46
-41
-36
-30
-25
-36
-43
-32
-25
-27
-30
-30
-23
-25
-36
-36
-25
-27
-32
-30
-34
-36
-34
-32
-16
-2
-13
-18
-2
-4
-25
-50
-76
-94
-92
-87
-106
-180
-268
-175
265
968
1416
1111
247
-355
-298
-161
-265
-286
-214
-214
-217
-177
-154
-143
-122
-106
-85
-62
-39
-11
18
39
55
94
140
173
196
198
189
194
191
171
143
104
62
32
9
-9
-30
-41
-36
-27
-18
-9
-2
6
18
30
41
48
46
46
48
41
25
9
-20
-34
-18
-9
-13
-6
-6
-9
4
18
23
16
-20
-55
-30
-9
-16
-20
-34
-60
-46
-20
-16
-18
-16
-11
-4
6
18
6
-6
4
20
23
27
27
23
32
46
50
55
60
62
78
80
76
90
87
64
55
60
57
62
64
41
-32
-143
-120
261
973
1548
1439
626
-187
-318
-143
-233
-309
-212
-191
-228
-205
-177
-166
-138
-113
-101
-87
-64
-34
-2
30
53
69
97
140
166
166
147
106
73
69
53
13
-32
-71
-99
-124
-140
-145
-152
-157
-143
-124
-115
-101
-92
-94
-94
-76
-60
-60
-64
-67
-60
-48
-43
-39
-39
-46
-34
-18
-13
-16
-16
-16
-20
-18
-13
-6
-9
-23
-34
-30
-20
-18
-16
-4
6
6
16
27
36
41
43
48
53
55
62
71
71
73
87
87
83
94
87
69
50
20
4
20
41
53
55
57
64
55
46
55
50
34
39
43
-9
-129
-164
136
832
1532
1650
977
55
-263
-80
-94
-219
-166
-124
-157
-145
-115
-106
-92
-76
-62
-48
-53
-46
-6
25
46
80
122
152
173
189
196
187
171
157
140
117
94
71
39
6
-9
-18
-20
-18
-20
-25
-27
-18
2
23
27
23
20
34
46
53
53
30
-13
-32
-11
6
4
-2
-9
-9
4
13
9
-9
-34
-39
-20
-16
-13
-2
-4
-20
-11
11
16
2
2
18
30
23
-6
-34
-20
6
9
13
20
13
6
25
48
53
41
32
43
57
55
57
60
50
57
80
78
60
55
57
53
41
43
57
53
30
20
-6
-108
-173
30
621
1340
1583
1060
187
-251
-117
-76
-214
-187
-136
-203
-221
-168
-152
-143
-106
-94
-97
-73
-46
-23
6
27
48
92
136
150
140
143
140
120
108
108
87
48
6
-23
-36
-50
-64
-76
-78
-67
-50
-39
-32
-23
-9
-9
-18
-18
-11
-4
-6
-4
2
2
2
9
2
-6
9
18
9
11
23
16
13
23
32
34
32
25
34
43
39
39
39
39
50
57
43
34
39
43
41
18
-11
-9
2
4
2
-11
-18
-6
2
-2
-2
9
25
27
20
32
36
18
13
30
36
34
36
30
-32
-140
-143
187
866
1460
1402
658
-90
-208
-36
-104
-184
-129
-131
-173
-173
-175
-168
-143
-122
-104
-87
-69
-36
-11
9
36
69
108
147
177
189
184
168
150
136
110
69
16
-41
-73
-83
-94
-104
-110
-124
-134
-131
-117
-99
-83
-69
-57
-46
-34
-30
-27
-23
-16
-13
-11
-11
-11
-11
-11
-13
-16
-18
-18
-11
0
6
13
13
4
11
32
39
36
36
34
39
48
60
64
57
57
67
69
73
78
71
67
73
78
83
92
83
64
69
83
85
76
62
64
83
104
110
106
99
83
55
27
27
25
-9
-30
-43
-127
-226
-143
325
1093
1606
1372
501
-217
-228
-94
-226
-277
-203
-208
-231
-189
-157
-150
-124
-108
-99
-76
-41
-13
11
36
55
76
117
161
180
187
182
168
161
154
129
94
60
25
4
-9
-27
-50
-55
-46
-34
-20
-13
-9
0
9
20
30
23
27
39
32
6
-13
-11
-9
-4
4
6
-4
-34
-55
-48
-34
-27
-18
-18
-27
-32
-30
-18
-11
-18
-18
-6
-4
-9
-18
-41
-43
-27
-20
-11
-6
-6
4
16
20
20
11
13
30
39
41
50
48
46
55
62
60
46
27
32
39
32
41
67
73
69
78
80
57
34
25
25
34
41
20
-71
-203
-205
117
801
1458
1499
785
-76
-312
-122
-154
-265
-201
-168
-205
-184
-159
-187
-194
-150
-122
-117
-94
-60
-34
-2
34
57
83
124
161
180
182
175
157
140
129
110
78
48
20
-13
-34
-41
-48
-55
-62
-57
-41
-23
-13
-11
-6
0
6
16
23
20
23
30
30
25
23
18
6
-9
-9
-2
-2
2
6
6
11
25
30
18
16
16
4
2
13
13
11
23
34
39
32
6
-20
-20
-6
-2
4
9
6
6
16
30
32
30
27
25
36
50
50
41
43
60
76
69
46
41
50
43
23
16
16
13
13
11
-39
-150
-145
205
896
1476
1402
651
-127
-277
-115
-191
-268
-187
-184
-219
-177
-134
-129
-127
-140
-161
-143
-104
-76
-57
-41
-11
39
80
115
147
154
150
161
161
136
113
80
39
13
-4
-32
-71
-120
-131
-108
-85
-76
-69
-62
-50
-39
-30
-30
-34
-30
-23
-20
-11
0
-2
-6
0
2
2
9
18
16
9
18
32
30
34
41
32
16
4
6
9
4
9
20
27
41
46
25
16
34
50
41
34
46
57
55
60
64
60
62
76
83
76
69
76
85
80
73
83
85
87
92
78
73
62
11
-16
0
-2
-23
-18
-27
-92
-203
-256
-13
633
1347
1555
996
85
-328
-161
-127
-254
-210
-147
-171
-159
-124
-115
-106
-85
-80
-90
-73
-32
-6
16
48
71
90
129
164
173
171
166
164
159
140
115
85
53
20
2
-11
-25
-39
-43
-30
-11
-4
0
6
9
20
41
48
41
39
39
48
48
30
9
-23
-48
-30
-16
-23
-25
-18
-13
-4
2
2
2
9
16
16
16
23
25
20
25
27
30
43
39
9
-2
18
27
13
4
6
13
16
20
20
-6
-39
-27
-11
-16
-11
-11
-23
-9
6
-18
-41
-36
-23
-6
-6
-6
-6
-41
-57
-43
-50
-69
-85
-108
-161
-279
-318
-16
661
1296
1352
697
-129
-383
-210
-238
-335
-263
-226
-258
-261
-256
-235
-194
-168
-157
-134
-113
-87
-48
-9
20
41
62
85
104
124
134
122
104
99
97
80
43
-2
-34
-46
-55
-67
-71
-71
-64
-46
-27
-16
0
13
11
6
27
48
43
30
34
41
50
53
41
41
36
18
13
25
34
32
25
27
41
48
48
48
50
55
60
62
62
67
69
69
73
78
78
83
87
90
83
50
23
32
36
9
-4
0
2
9
16
18
27
27
20
32
53
67
67
48
41
55
39
18
27
34
34
43
39
-11
-122
-173
43
633
1324
1539
991
120
-275
-124
-101
-233
-194
-129
-150
-143
-110
-97
-85
-62
-36
-16
-2
6
-2
-2
36
83
104
124
154
182
201
196
175
150
120
99
80
41
-25
-110
-173
-175
-159
-164
-164
-150
-140
-124
-97
-83
-83
-71
-62
-57
-55
-53
-48
-50
-55
-48
-41
-46
-48
-50
-53
-53
-46
-41
-48
-53
-48
-57
-69
-60
-53
-62
-62
-48
-34
-27
-30
-27
-16
2
9
11
13
20
23
25
41
53
41
36
53
73
78
76
71
71
71
76
80
69
41
32
64
85
71
48
18
-18
-23
0
6
-4
-2
6
-34
-150
-214
-11
582
1319
1603
1107
196
-298
-171
-92
-210
-189
-120
-134
-143
-122
-108
-94
-73
-60
-46
-18
13
43
57
71
113
159
182
203
226
221
210
212
205
187
166
131
85
55
32
11
0
-6
-18
-16
-2
0
-9
-18
-32
-34
-20
-16
-13
-2
4
4
13
23
18
13
16
18
18
9
-20
-36
-23
-13
-13
-13
-18
-9
9
13
18
23
11
-2
-2
9
16
11
11
18
18
18
27
16
-20
-20
-6
-13
0
11
6
13
25
25
30
30
27
36
48
48
55
57
50
48
36
20
25
34
27
18
-2
-23
-23
-18
-30
-46
-50
-57
-101
-201
-247
-23
554
1234
1456
924
83
-281
-122
-108
-268
-254
-182
-187
-180
-147
-131
-129
-120
-97
-71
-53
-27
-6
13
46
83
115
150
180
208
219
212
198
180
157
140
115
73
41
16
-9
-18
-20
-36
-36
-20
-13
-4
6
0
-6
4
23
32
20
-6
-20
-11
-6
-6
9
6
-6
0
13
20
27
23
16
23
32
41
46
43
39
39
46
57
67
67
60
50
48
53
62
43
9
0
18
36
41
32
32
43
46
46
55
57
50
53
71
80
73
64
67
69
64
73
71
62
67
57
36
30
25
9
4
9
-30
-150
-254
-115
439
1197
1569
1162
270
-286
-189
-87
-217
-208
-136
-168
-164
-104
-90
-83
-60
-50
-32
0
25
43
57
55
76
131
168
177
166
150
150
150
138
124
99
62
27
0
-23
-67
-124
-143
-127
-115
-106
-99
-92
-76
-67
-62
-48
-41
-43
-46
-50
-60
-62
-57
-62
-69
-67
-60
-55
-71
-94
-99
-90
-83
-80
-85
-90
-85
-78
-69
-62
-62
-64
-62
-46
-32
-30
-27
-23
-18
-4
9
9
0
-2
11
20
23
25
30
41
50
50
53
55
57
64
64
64
67
55
46
50
55
69
64
25
11
23
0
-23
-18
-20
-36
-43
-48
-94
-205
-270
-46
575
1305
1573
1079
166
-325
-196
-136
-268
-240
-168
-182
-171
-124
-108
-106
-87
-60
-30
-9
4
25
57
90
113
138
173
194
203
214
217
208
194
173
147
124
99
60
20
-2
-9
-6
-6
-6
-6
0
16
30
36
39
36
39
48
57
62
48
6
-18
-9
-2
-23
-34
-34
-30
-18
-9
-11
-9
-9
-9
-16
-34
-34
-25
-25
-18
-9
-2
2
0
0
16
13
2
13
4
-36
-41
-11
0
-6
-18
-23
-2
16
18
13
6
16
27
23
11
2
2
11
27
36
36
43
41
13
-6
-6
-4
-18
-32
-34
-69
-168
-214
11
600
1285
1458
866
32
-293
-140
-113
-217
-175
-134
-182
-196
-152
-136
-145
-143
-127
-104
-76
-43
-9
27
43
53
90
140
180
201
201
189
180
173
166
138
85
34
13
-4
-36
-50
-53
-53
-41
-23
-9
4
16
25
34
41
43
50
50
41
50
67
64
55
46
39
46
55
57
55
46
34
30
36
43
43
32
25
36
48
53
50
50
50
60
69
60
30
13
27
46
46
20
-11
-9
9
11
16
20
16
20
30
27
20
11
4
9
34
53
36
27
36
27
6
9
23
16
11
20
4
-76
-196
-154
281
1030
1571
1402
570
-189
-247
-78
-182
-247
-171
-159
-177
-159
-138
-129
-113
-85
-60
-39
-20
-2
16
43
80
110
136
150
140
127
120
104
80
53
4
-34
-48
-69
-104
-127
-131
-129
-127
-120
-124
-129
-120
-94
-73
-69
-60
-46
-34
-23
-11
-6
-9
-11
-4
9
9
4
4
4
11
23
30
30
32
30
30
39
46
48
43
36
36
39
41
39
27
27
36
48
57
64
55
43
50
64
69
69
71
71
73
73
53
32
34
39
41
53
60
55
41
41
60
76
69
32
-11
-27
-30
-39
-32
-13
-20
-23
-13
-57
-177
-247
-34
587
1328
1569
1023
115
-321
-159
-106
-244
-219
-157
-177
-161
-113
-108
-94
-69
-73
-67
-34
-6
11
32
53
83
122
157
184
198
201
205
196
180
166
143
108
73
43
16
-23
-62
-80
-67
-53
-43
-34
-39
-41
-20
-6
-16
-18
-11
-13
-11
0
4
-2
-4
2
6
4
-4
-30
-57
-55
-32
-27
-39
-36
-20
-16
-13
-11
-6
-9
-4
6
9
4
16
27
11
-2
9
20
25
23
16
16
27
30
2
-41
-46
-30
-27
-16
0
0
-2
2
18
32
18
-6
-6
-6
-18
-18
-13
-13
-18
-34
-85
-189
-233
18
640
1324
1479
866
11
-312
-147
-136
-258
-217
-166
-182
-161
-131
-131
-143
-150
-129
-97
-78
-64
-43
-13
18
53
92
134
159
168
173
177
168
154
134
104
73
41
6
-18
-39
-55
-53
-50
-46
-39
-36
-23
-2
2
11
25
16
4
0
-4
0
2
-6
2
6
-11
-23
-20
-13
-6
-2
9
11
6
11
25
25
30
34
30
32
41
48
53
48
43
50
62
64
62
48
18
4
18
30
34
34
16
13
36
43
36
30
32
41
55
53
48
55
60
62
71
83
76
50
43
60
62
48
36
30
-11
-120
-214
-25
596
1342
1617
1125
191
-335
-208
-143
-284
-256
-180
-198
-198
-164
-150
-136
-110
-90
-73
-57
-39
-11
23
48
69
99
131
164
191
198
184
175
171
152
129
99
50
4
-23
-32
-41
-60
-97
-120
-104
-80
-64
-69
-97
-99
-73
-57
-48
-41
-39
-34
-30
-25
-13
-4
-6
-13
-11
-25
-48
-46
-34
-34
-43
-48
-41
-27
-23
-23
-18
-6
6
6
6
16
23
20
20
30
43
46
46
53
57
55
53
57
62
71
73
71
76
80
83
85
76
67
64
69
80
85
78
78
85
78
69
55
27
9
11
18
25
23
0
-11
2
4
-6
-18
-60
-159
-249
-140
353
1107
1550
1248
362
-316
-284
-131
-254
-277
-189
-198
-212
-171
-152
-136
-106
-85
-64
-43
-27
0
27
46
76
106
129
164
203
217
214
205
191
180
168
136
80
32
11
-6
-39
-53
-46
-43
-39
-23
-11
-4
4
9
6
20
39
41
39
36
36
46
50
36
2
-27
-25
-6
-11
-30
-43
-46
-48
-55
-48
-48
-85
-106
-78
-57
-62
-62
-50
-41
-34
-25
-18
-20
-20
-6
4
4
18
20
9
16
36
32
16
-6
-32
-25
-6
-4
-23
-57
-78
-64
-48
-50
-57
-69
-67
-46
-41
-41
-36
-34
-23
-4
-6
-18
-27
-57
-71
-53
-48
-48
-43
-57
-104
-191
-219
46
684
1352
1442
774
-48
-309
-171
-208
-302
-233
-196
-212
-175
-143
-138
-113
-85
-67
-46
-27
-13
20
64
87
101
138
182
212
240
251
240
226
214
194
159
117
71
34
4
-11
-16
-27
-43
-39
-18
-9
-4
2
11
23
32
43
53
60
60
53
53
62
64
60
53
39
41
57
62
50
41
23
-11
-25
-4
0
-6
6
13
13
4
-27
-39
-18
-6
-6
-2
0
4
18
30
30
20
23
39
46
46
41
25
20
32
30
13
11
13
18
20
16
4
-2
-11
-20
-25
-27
-20
-13
-18
-18
-11
-6
4
9
2
11
11
-13
-13
4
13
16
13
-13
-104
-189
-67
436
1197
1647
1319
404
-256
-194
-55
-189
-212
-127
-131
-124
-83
-78
-90
-97
-92
-62
-34
-27
-18
-13
0
36
80
113
138
161
184
196
180
150
134
115
94
64
30
2
-20
-39
-43
-46
-39
-36
-36
-23
-6
6
13
11
16
36
43
41
50
53
43
53
64
60
50
53
46
32
27
39
48
43
25
9
16
25
27
25
18
20
27
34
43
48
41
39
36
32
27
-4
-46
-32
-6
-6
-2
-2
-20
-34
-39
-53
-69
-69
-64
-57
-46
-39
-41
-43
-41
-32
-16
-16
-32
-32
-18
-13
-6
2
9
16
18
30
43
34
6
2
16
25
32
36
-13
-134
-191
50
702
1439
1682
1141
191
-291
-124
-60
-212
-184
-110
-131
-120
-80
-76
-67
-34
-11
6
20
36
57
87
117
140
166
194
219
238
242
231
196
154
136
127
97
50
20
-2
-34
-53
-36
-25
-39
-46
-34
-16
-4
0
0
2
13
20
30
41
39
36
43
46
48
43
20
9
25
39
34
20
20
27
20
0
-23
-48
-71
-67
-53
-57
-53
-41
-34
-39
-53
-57
-41
-36
-46
-46
-32
-23
-30
-46
-48
-53
-83
-101
-94
-94
-94
-87
-94
-97
-85
-92
-99
-80
-73
-85
-108
-143
-147
-122
-115
-120
-117
-113
-113
-124
-134
-124
-117
-117
-104
-122
-224
-314
-164
376
1123
1490
1100
238
-305
-210
-104
-233
-240
-182
-210
-201
-147
-134
-124
-94
-76
-57
-25
-4
16
39
60
101
152
184
217
240
247
242
226
214
208
187
152
120
85
41
4
-11
-25
-27
-13
-2
2
4
9
23
41
48
32
2
0
13
20
20
20
18
25
30
32
27
9
-6
-2
18
27
23
20
20
23
30
39
41
43
34
11
11
34
39
20
18
30
30
23
16
11
20
36
39
32
32
30
6
-13
-20
-16
-25
-43
-43
-30
-16
-4
-4
-13
-9
-11
-23
-13
0
-11
-13
-2
-27
-129
-194
2
568
1275
1543
1040
177
-240
-92
-32
-159
-161
-152
-194
-173
-122
-108
-110
-124
-127
-94
-57
-30
-9
6
32
50
64
101
140
164
180
194
187
168
150
127
90
50
16
-16
-50
-80
-110
-122
-106
-92
-92
-90
-80
-64
-53
-48
-46
-39
-39
-46
-39
-34
-36
-41
-46
-46
-41
-43
-48
-48
-48
-43
-34
-30
-32
-23
-11
-4
-13
-27
-20
-11
-11
-2
0
-30
-53
-39
-20
-13
-9
-9
-2
11
13
-4
-25
-20
-9
-2
13
20
13
2
4
13
18
20
27
18
2
2
20
25
6
-9
-13
-20
-30
-30
-25
-18
-9
-16
-87
-198
-173
205
942
1583
1548
765
-76
-242
-60
-117
-191
-113
-97
-122
-80
-50
-67
-73
-53
-25
0
25
43
60
85
120
154
191
221
214
198
210
219
201
182
157
110
80
60
20
-11
-18
-32
-46
-39
-25
-27
-34
-30
-23
-18
-2
16
11
13
36
43
41
43
41
41
48
57
60
50
43
46
50
60
69
60
48
57
71
69
53
25
-4
0
16
6
-2
-6
-6
9
23
27
30
27
25
39
55
57
55
57
57
57
67
83
83
60
36
30
39
43
20
-16
-27
-20
-18
-6
2
-6
-23
-16
2
4
-11
-16
-4
-4
-11
-9
-25
-50
-41
-18
-18
-20
-25
-85
-189
-198
108
792
1474
1597
952
46
-275
-85
-94
-221
-164
-117
-157
-140
-101
-101
-87
-53
-36
-27
-2
20
43
78
106
124
150
180
212
238
247
249
242
221
187
150
117
83
50
13
-13
-18
-23
-32
-43
-39
-23
-13
-27
-53
-57
-36
-20
-20
-25
-11
2
-4
-4
16
16
2
4
6
6
16
23
18
20
30
34
30
23
27
34
25
6
13
23
20
25
34
34
32
32
41
48
43
48
53
43
43
57
64
67
69
64
62
62
55
25
-9
-4
16
11
2
9
9
4
6
6
6
4
-9
-23
-20
-30
-50
-50
-71
-99
-85
-76
-138
-240
-251
36
679
1335
1428
758
-104
-372
-173
-175
-291
-235
-180
-191
-177
-168
-177
-154
-120
-106
-83
-46
-20
-9
16
57
94
122
152
182
208
228
238
226
201
180
161
129
94
60
9
-43
-64
-55
-53
-57
-60
-67
-55
-32
-18
-9
-6
-6
6
23
25
27
25
18
25
30
30
27
-4
-46
-39
-13
-9
-9
-6
-11
-9
9
27
23
11
16
20
11
11
11
6
16
34
36
34
43
36
34
50
57
57
53
36
30
36
43
48
41
25
27
46
46
36
36
20
-20
-39
-34
-50
-80
-78
-62
-53
-43
-55
-143
-247
-154
307
1044
1553
1333
485
-208
-208
-46
-150
-205
-134
-127
-127
-83
-67
-73
-57
-30
-16
2
2
-23
-16
18
36
62
108
140
154
177
198
201
187
164
145
129
97
55
20
-11
-30
-32
-43
-53
-48
-30
-13
0
11
18
18
16
11
-2
-13
-16
-20
-23
-18
-4
2
-6
-9
2
0
-6
-6
-27
-55
-46
-20
-25
-32
-23
-16
-6
0
6
6
9
16
20
23
30
39
36
27
20
13
20
11
-25
-34
-18
-16
-16
-20
-32
-23
-6
-6
-9
-6
-2
2
6
-2
-4
2
-13
-16
-6
-20
-39
-34
-25
-20
-16
-30
-101
-231
-268
-2
642
1365
1585
1021
110
-300
-127
-87
-226
-194
-127
-138
-117
-85
-92
-78
-41
-23
-9
20
43
55
76
104
131
161
187
203
217
228
226
208
189
180
161
134
101
55
-11
-55
-50
-48
-60
-60
-50
-46
-36
-27
-9
2
0
13
30
36
46
39
34
46
48
39
30
11
-16
-25
-9
2
-4
-6
0
13
20
20
20
16
16
30
39
48
48
34
34
46
50
60
67
62
62
69
71
76
76
67
53
55
62
55
48
55
60
64
69
71
64
57
62
69
69
67
62
48
32
30
43
48
36
13
-13
-90
-203
-164
235
954
1490
1319
489
-265
-332
-182
-293
-348
-261
-272
-323
-288
-240
-224
-205
-180
-168
-157
-117
-80
-60
-39
-9
25
62
97
127
150
157
145
138
131
110
80
36
-11
-53
-80
-101
-113
-120
-124
-120
-106
-99
-94
-85
-78
-76
-71
-64
-60
-57
-62
-64
-55
-50
-57
-62
-62
-57
-53
-55
-55
-43
-32
-39
-64
-92
-113
-106
-110
-129
-115
-99
-97
-78
-62
-62
-55
-41
-39
-30
-16
-2
4
4
9
18
23
25
32
32
43
50
46
57
62
57
71
78
67
73
85
67
50
64
69
55
53
46
-9
-110
-115
198
848
1472
1493
783
-25
-221
-48
-97
-196
-134
-110
-140
-110
-76
-87
-90
-76
-64
-50
-20
6
18
9
-2
0
36
85
120
140
152
152
152
150
138
113
73
27
0
-6
-30
-64
-76
-62
-53
-43
-27
-16
-20
-23
-9
6
18
20
18
30
39
30
27
32
25
25
36
41
43
43
41
48
55
50
48
48
48
60
71
67
55
25
-4
0
9
-2
0
2
-6
0
18
25
16
-4
-9
6
23
25
18
16
18
18
20
39
36
-4
-20
9
18
-2
-18
-23
-18
-4
0
-11
-67
-198
-242
67
758
1446
1539
850
-41
-323
-138
-164
-298
-242
-203
-247
-226
-184
-194
-194
-164
-138
-120
-94
-71
-53
-25
4
39
78
108
124
143
150
145
136
127
113
94
71
41
16
-25
-76
-90
-78
-73
-69
-62
-55
-43
-25
-4
0
0
6
18
34
34
0
-25
-16
4
13
2
-9
-4
-4
-6
4
13
4
0
11
23
32
27
20
34
41
43
55
60
50
53
67
73
78
76
73
83
85
90
101
99
92
87
80
76
80
80
76
80
90
92
94
94
94
90
64
57
76
83
80
87
76
60
64
71
80
92
83
27
-92
-147
131
815
1506
1654
1023
62
-307
-97
-90
-240
-205
-166
-196
-175
-147
-157
-145
-110
-94
-80
-57
-34
-20
-2
30
60
73
80
76
85
117
127
113
99
90
71
36
-4
-32
-62
-87
-99
-104
-101
-97
-92
-85
-67
-53
-62
-83
-87
-76
-62
-57
-53
-53
-60
-55
-36
-30
-43
-55
-57
-57
-55
-53
-60
-71
-76
-71
-69
-73
-71
-80
-83
-67
-55
-53
-55
-76
-101
-94
-71
-62
-60
-60
-55
-34
-16
-11
-9
-6
-4
11
27
25
30
27
13
9
23
41
41
36
46
62
69
78
67
41
43
64
71
69
50
-9
-106
-143
69
651
1354
1564
989
127
-226
-55
-25
-164
-143
-87
-115
-136
-124
-113
-99
-85
-71
-50
-30
-18
-6
20
60
87
108
136
173
198
212
224
212
180
171
168
134
57
-11
-36
-50
-71
-76
-69
-83
-94
-76
-62
-57
-46
-34
-27
-9
11
16
0
-2
11
16
16
20
4
-23
-36
-27
-13
-11
-16
-18
-13
-4
9
13
13
16
18
18
18
6
0
6
18
27
27
25
27
34
39
43
39
9
-18
-9
6
4
11
20
20
23
27
27
39
48
55
64
69
71
57
9
-30
-25
-11
-6
-4
-9
-32
-124
-205
-20
552
1266
1562
1090
212
-247
-113
-60
-214
-221
-168
-196
-205
-168
-143
-136
-117
-99
-90
-71
-41
-20
-16
-4
32
69
97
131
159
168
168
166
166
159
134
106
73
34
4
-9
-25
-41
-48
-36
-23
-16
-4
2
2
11
27
36
41
43
39
34
43
53
27
-13
-32
-16
-6
-6
-6
-18
-16
4
18
20
18
16
25
25
-2
-13
0
-4
-9
13
30
30
25
23
32
43
36
27
20
23
30
34
43
53
41
34
50
62
64
67
62
60
64
73
80
73
62
71
90
104
110
101
71
48
57
67
62
57
41
-32
-145
-161
131
801
1490
1629
991
67
-286
-110
-129
-256
-184
-129
-173
-189
-180
-171
-150
-145
-147
-129
-106
-92
-64
-23
6
23
48
83
106
117
131
129
113
104
97
78
39
-18
-57
-71
-85
-92
-90
-97
-97
-78
-64
-55
-43
-39
-32
-18
-4
6
16
16
11
16
32
34
20
4
0
9
16
25
27
20
16
25
41
39
32
36
43
46
50
53
48
48
57
60
39
-9
-43
-30
-16
-20
-13
-2
0
6
6
-6
-9
4
9
6
16
32
36
30
20
34
46
39
39
43
39
43
55
71
80
60
48
57
36
18
32
36
30
34
20
-76
-201
-152
272
1014
1571
1437
612
-184
-270
-85
-182
-256
-173
-154
-171
-134
-115
-120
-101
-78
-55
-32
-18
-2
11
11
34
78
97
115
147
164
161
150
131
97
53
27
23
2
-36
-62
-73
-78
-73
-71
-73
-60
-41
-39
-30
-11
-9
-9
6
20
18
18
30
25
11
16
30
32
16
0
6
25
30
25
18
11
16
27
34
43
39
27
32
46
41
41
50
46
39
53
64
62
57
46
25
6
11
13
-20
-53
-48
-39
-36
-36
-46
-46
-23
-9
-6
-18
-60
-76
-48
-48
-64
-57
-64
-73
-62
-57
-57
-50
-64
-115
-212
-275
-69
520
1218
1446
933
76
-344
-208
-168
-291
-247
-180
-198
-194
-168
-154
-127
-99
-85
-71
-53
-32
-13
11
50
73
90
129
175
196
205
210
196
168
140
117
99
55
-2
-39
-57
-69
-76
-76
-73
-60
-48
-43
-27
-16
-13
-4
18
27
13
4
16
27
23
13
-11
-41
-39
-27
-20
-16
-20
-23
-13
-4
-6
-27
-34
-20
-11
-13
-4
11
9
2
11
23
23
16
23
41
41
30
36
41
39
50
62
57
48
43
55
64
62
67
53
23
16
11
-27
-48
-23
-13
-30
-30
-20
-57
-166
-194
76
688
1342
1442
762
-69
-305
-127
-143
-251
-205
-164
-177
-159
-131
-134
-145
-152
-129
-99
-92
-85
-69
-46
-11
27
57
85
122
150
166
166
159
150
131
108
92
62
13
-20
-39
-53
-57
-55
-53
-76
-104
-87
-55
-48
-43
-39
-62
-85
-73
-57
-67
-69
-55
-53
-57
-55
-50
-53
-55
-43
-34
-36
-39
-41
-41
-30
-18
-20
-30
-36
-36
-25
-9
0
-16
-36
-30
-16
-13
-32
-71
-106
-106
-92
-92
-90
-90
-87
-69
-57
-53
-50
-48
-43
-36
-34
-25
-20
-23
-11
2
-23
-110
-187
-64
432
1183
1615
1266
390
-214
-187
-94
-212
-224
-152
-168
-184
-147
-124
-122
-115
-108
-85
-55
-46
-32
-9
6
30
71
108
145
173
175
180
194
187
164
143
110
80
60
18
-27
-43
-46
-50
-41
-23
-16
-18
-13
-4
6
25
30
0
-23
-11
4
13
16
6
4
13
16
20
27
25
23
32
43
55
53
36
32
36
25
2
0
6
11
27
41
43
41
46
48
55
67
73
69
62
62
71
85
92
85
83
92
99
99
101
97
97
97
80
64
73
99
104
94
99
106
90
73
80
87
90
85
46
-41
-147
-177
106
795
1506
1638
996
106
-228
-73
-113
-256
-189
-140
-168
-140
-117
-131
-110
-83
-97
-120
-108
-90
-80
-57
-18
9
20
55
99
117
120
117
110
97
80
71
60
34
-2
-18
-30
-53
-64
-62
-62
-53
-50
-60
-48
-32
-23
-4
2
2
11
11
6
16
30
30
25
23
27
32
34
34
25
25
36
46
43
43
48
50
50
60
64
55
48
43
43
53
62
53
27
18
41
50
41
27
-2
-23
-2
18
16
4
6
20
34
39
39
32
30
43
57
60
55
43
53
83
80
55
55
50
34
43
55
55
53
48
23
-62
-150
-18
510
1268
1701
1391
492
-187
-152
-23
-157
-175
-87
-97
-117
-90
-76
-78
-71
-64
-69
-69
-55
-27
2
20
23
32
46
64
90
106
83
36
23
34
34
18
-9
-41
-67
-78
-78
-87
-101
-106
-92
-71
-55
-46
-48
-48
-41
-39
-30
-13
-13
-23
-32
-25
-13
-30
-67
-78
-67
-50
-39
-43
-50
-41
-25
-18
-13
-9
-9
-9
2
18
23
16
18
23
23
34
43
41
32
27
43
55
48
50
55
41
18
20
27
27
36
46
36
34
25
-6
-13
4
16
32
41
32
36
41
27
27
39
36
32
25
-4
-94
-194
-101
376
1118
1597
1345
487
-194
-173
-20
-154
-214
-145
-152
-173
-136
-117
-120
-101
-83
-69
-57
-32
-4
4
25
62
94
106
113
129
150
164
154
136
122
113
101
83
36
-25
-67
-76
-78
-78
-78
-73
-64
-46
-23
-20
-27
-27
-48
-73
-62
-43
-50
-53
-41
-48
-60
-55
-48
-50
-50
-39
-27
-23
-23
-23
-23
-9
9
16
4
0
9
25
41
48
36
23
30
41
41
48
55
55
55
60
71
67
39
25
43
55
48
62
73
57
62
85
78
53
32
16
9
16
30
-6
-131
-205
9
575
1264
1523
998
131
-247
-87
-55
-201
-217
-212
-244
-212
-168
-184
-217
-212
-180
-154
-127
-106
-97
-71
-25
18
46
71
99
124
147
157
154
143
117
97
78
48
13
-20
-48
-62
-67
-73
-69
-64
-62
-50
-36
-23
-6
-9
-13
4
16
9
20
25
-2
-23
-9
-2
-11
-11
-9
-6
2
13
13
4
0
11
23
27
27
18
2
0
20
27
27
32
30
32
43
50
46
53
67
62
64
73
39
-11
-2
23
20
27
32
0
-83
-166
-57
416
1141
1587
1294
446
-182
-157
-30
-140
-171
-87
-80
-94
-64
-53
-57
-36
-20
-20
-6
9
4
6
41
67
76
101
129
138
143
140
131
117
101
85
60
25
-23
-64
-78
-83
-99
-110
-101
-92
-87
-67
-55
-57
-41
-20
-23
-18
-11
-9
2
0
-11
-6
-25
-71
-69
-41
-43
-53
-43
-34
-32
-30
-34
-41
-39
-27
-16
-11
-11
-6
0
4
11
16
20
25
25
32
36
16
-2
4
6
9
16
13
13
2
-30
-32
-9
-11
-4
18
9
0
18
18
2
-2
9
23
30
27
4
-80
-184
-92
397
1176
1687
1446
570
-145
-150
0
-124
-171
-85
-76
-83
-53
-67
-106
-85
-48
-50
-53
-34
-20
0
30
48
71
87
101
131
161
164
143
122
108
92
71
23
-46
-92
-104
-99
-113
-122
-115
-117
-115
-92
-71
-64
-55
-57
-69
-55
-36
-36
-32
-30
-32
-20
-4
-6
-18
-20
-16
-9
-4
2
6
0
0
13
23
25
25
23
27
39
50
53
46
36
39
34
27
39
46
34
34
50
62
50
11
-13
4
23
25
25
23
20
32
43
55
48
18
2
13
27
34
46
55
53
50
64
67
43
23
30
43
46
46
27
-64
-166
-55
462
1234
1682
1382
506
-161
-129
4
-124
-145
-67
-80
-80
-34
-25
-30
-6
11
18
27
32
39
48
57
87
122
134
152
177
184
171
147
124
104
87
69
30
-34
-94
-110
-120
-134
-150
-180
-208
-210
-203
-187
-168
-166
-157
-140
-129
-117
-115
-129
-122
-101
-97
-101
-99
-94
-94
-101
-94
-78
-78
-87
-78
-67
-69
-67
-62
-57
-50
-57
-62
-53
-55
-60
-48
-39
-41
-46
-46
-43
-55
-62
-53
-57
-71
-55
-39
-36
-36
-27
-18
-11
2
11
11
13
20
27
30
36
50
34
-16
-20
0
-25
-53
-41
-32
-27
-11
-4
-50
-164
-235
-57
478
1185
1525
1097
235
-235
-97
-11
-147
-150
-94
-108
-97
-62
-53
-53
-41
-23
9
27
30
27
34
60
87
104
124
150
166
168
161
147
136
129
115
97
78
50
4
-30
-36
-39
-36
-32
-41
-39
-11
9
18
20
18
32
48
53
34
6
0
11
16
13
6
-9
-20
-11
2
9
13
-13
-55
-43
-6
-2
-6
-2
-2
0
18
32
36
34
23
30
48
62
69
64
55
64
80
85
85
83
64
53
62
71
73
69
69
73
76
76
62
32
25
32
32
48
64
60
57
62
55
41
34
32
39
46
46
16
-90
-214
-166
242
968
1525
1370
552
-194
-268
-99
-184
-249
-177
-164
-177
-140
-134
-166
-157
-110
-94
-83
-53
-27
-9
18
55
87
101
131
168
187
191
189
177
152
124
104
87
62
36
16
0
-16
-25
-18
-18
-11
4
11
23
34
39
48
60
67
64
55
55
69
71
67
67
64
48
32
23
16
2
-13
-6
11
20
25
25
25
32
41
46
50
50
48
48
55
69
64
48
25
16
25
32
32
32
30
39
55
55
55
62
62
55
60
60
53
53
53
41
43
53
48
34
32
48
50
48
55
55
41
34
30
16
-4
-23
-13
4
11
4
-48
-161
-217
11
637
1365
1585
1012
83
-335
-154
-117
-256
-221
-154
-164
-145
-120
-117
-101
-67
-46
-30
-6
6
16
50
87
106
120
124
120
138
166
171
157
136
108
85
69
60
23
-43
-85
-83
-76
-73
-76
-83
-73
-50
-34
-27
-23
-20
-11
2
0
0
9
2
2
11
9
6
4
-6
-16
-25
-43
-46
-46
-60
-55
-36
-34
-34
-34
-48
-53
-39
-32
-39
-43
-43
-41
-32
-25
-25
-30
-27
-18
-16
-13
-4
-2
-4
4
13
23
34
20
-4
-11
0
6
-18
-53
-48
-34
-30
-23
-18
-32
-41
-32
-27
-41
-53
-60
-60
-48
-36
-34
-55
-138
-235
-117
402
1153
1571
1252
385
-261
-238
-122
-244
-258
-173
-173
-173
-138
-122
-106
-78
-64
-53
-30
-9
18
43
62
90
120
147
177
205
228
233
214
198
196
180
147
124
97
60
34
16
-4
-9
-6
-2
13
16
18
13
-18
-23
2
6
9
16
18
23
25
20
25
25
20
25
25
23
27
30
25
32
34
13
-20
-41
-23
0
-9
-18
-4
9
11
9
23
34
27
23
32
46
46
48
55
53
48
60
60
50
27
-18
-30
0
0
-13
-2
0
-6
9
18
-11
-43
-41
-36
-43
-46
-50
-78
-166
-238
-92
413
1113
1481
1097
247
-258
-157
-85
-251
-258
-166
-171
-177
-145
-131
-117
-97
-92
-80
-60
-60
-60
-23
18
34
60
99
129
157
191
203
175
157
159
145
115
92
64
16
-13
-18
-25
-25
-23
-27
-18
2
13
4
-11
2
25
27
27
39
32
27
43
46
34
36
34
25
39
50
36
36
48
46
46
57
67
60
46
48
60
64
67
71
57
43
46
50
41
11
-13
-18
-25
-30
-25
-23
-18
-6
0
6
13
25
34
34
43
53
41
11
0
13
25
20
16
-9
-106
-177
-6
524
1236
1576
1139
231
-291
-171
-97
-238
-219
-140
-157
-159
-127
-117
-113
-90
-62
-48
-36
-18
2
32
69
87
106
131
164
201
221
219
205
173
138
127
110
71
41
16
-32
-76
-97
-124
-150
-136
-117
-104
-85
-76
-71
-50
-41
-43
-46
-73
-90
-69
-55
-55
-50
-50
-46
-34
-32
-39
-48
-50
-41
-32
-23
-13
-9
-9
-2
11
13
13
16
20
27
32
39
48
48
41
50
64
67
69
62
57
73
87
80
85
87
69
55
60
67
69
64
60
69
73
60
43
50
69
71
60
39
9
-11
2
18
18
-2
-92
-212
-138
351
1127
1647
1432
570
-168
-191
-43
-189
-254
-164
-168
-196
-157
-140
-145
-120
-94
-73
-48
-46
-43
-4
36
57
69
99
129
152
175
189
184
164
138
138
131
97
69
41
0
-27
-32
-27
-20
-30
-34
-18
-2
4
-6
-32
-32
-11
2
13
25
25
18
18
25
32
34
25
18
30
43
46
25
-6
-11
-2
-2
-6
-6
-13
-9
2
13
27
27
13
20
41
43
39
46
55
48
53
69
73
73
78
73
71
78
85
78
76
85
92
97
101
97
85
76
80
92
90
83
80
85
83
83
99
92
62
67
83
57
11
-11
-16
-20
-13
-23
-108
-221
-166
270
1028
1597
1469
626
-201
-295
-134
-268
-367
-293
-281
-300
-254
-224
-233
-221
-194
-168
-143
-134
-122
-90
-69
-57
-23
11
30
60
71
62
76
80
50
27
20
4
-18
-41
-71
-92
-99
-99
-92
-90
-92
-78
-57
-41
-30
-30
-36
-43
-43
-32
-30
-32
-16
-2
-6
-11
-6
-6
-2
4
9
16
13
9
25
32
11
6
18
11
11
32
36
30
34
39
43
50
50
39
16
0
9
23
27
20
13
25
41
41
41
50
55
48
46
60
71
64
53
53
67
73
62
50
48
50
53
60
62
62
62
50
23
0
-2
-13
-30
-25
-41
-140
-256
-157
314
1033
1486
1215
374
-254
-205
-69
-208
-242
-171
-180
-173
-117
-104
-110
-99
-78
-55
-32
-13
4
30
53
80
120
152
166
157
143
150
166
168
157
131
99
76
55
27
-4
-36
-64
-73
-64
-50
-57
-87
-90
-62
-48
-41
-34
-36
-30
-23
-30
-48
-67
-67
-50
-50
-64
-60
-57
-67
-57
-43
-43
-39
-39
-46
-46
-50
-57
-55
-57
-64
-57
-46
-43
-36
-36
-50
-46
-27
-23
-30
-39
-43
-41
-34
-27
-23
-27
-36
-43
-43
-36
-30
-39
-41
-23
-13
-20
-32
-39
-32
-11
-23
-48
-69
-104
-117
-99
-85
-76
-62
-71
-106
-184
-251
-127
367
1102
1504
1137
263
-293
-205
-94
-212
-205
-129
-136
-131
-108
-117
-113
-71
-50
-50
-23
11
30
55
83
101
124
159
196
224
240
244
240
224
212
205
175
138
104
71
48
39
20
6
11
25
30
20
13
30
41
36
39
41
16
0
13
20
20
23
18
25
32
20
13
16
2
-4
9
20
23
11
9
25
41
36
32
36
39
30
18
20
32
34
41
55
53
43
46
57
62
69
78
73
64
57
53
60
69
60
48
43
48
60
60
39
0
-41
-41
-20
-30
-50
-62
-71
-71
-60
-55
-60
-57
-57
-87
-177
-256
-117
413
1164
1560
1187
275
-330
-254
-166
-312
-300
-217
-247
-254
-198
-171
-159
-138
-131
-129
-110
-97
-80
-50
-34
-18
16
55
87
110
108
99
108
110
87
73
60
30
-4
-23
-27
-39
-62
-67
-48
-34
-25
-18
-11
-2
13
20
13
6
9
20
32
41
50
46
34
41
53
53
53
48
41
50
67
69
67
64
60
55
46
23
18
6
-27
-25
-4
2
11
16
4
-4
9
18
18
25
34
41
43
39
46
57
55
62
80
85
76
64
55
57
64
62
57
67
83
80
83
90
69
39
23
16
4
0
-2
-30
-131
-228
-97
436
1194
1606
1268
392
-221
-157
-39
-173
-187
-104
-106
-108
-80
-73
-62
-36
-41
-55
-34
-6
4
36
80
101
113
134
159
187
203
184
150
134
131
129
115
85
46
16
-6
-20
-36
-43
-41
-34
-30
-16
-13
-39
-48
-27
-18
-18
-13
-16
-13
-6
-13
-32
-34
-23
-20
-20
-20
-30
-27
-18
-11
-13
-18
-13
-11
-9
0
0
-13
-18
-16
-11
-6
-6
-11
-16
-39
-50
-41
-30
-32
-34
-34
-43
-43
-36
-39
-41
-41
-43
-34
-20
-13
-25
-62
-62
-32
-41
-73
-71
-57
-53
-39
-27
-76
-196
-242
2
593
1280
1490
915
36
-316
-143
-131
-270
-226
-161
-184
-173
-131
-115
-113
-97
-67
-34
-23
-20
-4
32
76
104
134
157
182
217
240
238
228
210
173
131
108
85
46
0
-34
-48
-48
-41
-43
-53
-46
-16
11
23
23
23
30
46
53
53
50
48
53
62
62
64
46
2
-11
9
18
23
25
18
13
11
16
25
27
18
18
32
46
46
43
46
46
48
60
69
69
64
67
76
85
92
85
76
78
92
94
87
87
87
67
41
57
71
50
46
62
55
46
53
50
41
50
43
-36
-184
-212
120
818
1462
1495
783
-62
-281
-101
-140
-251
-210
-187
-208
-180
-147
-159
-180
-175
-168
-164
-138
-108
-92
-76
-48
-13
20
43
69
92
104
106
99
80
69
62
32
-13
-41
-62
-87
-108
-115
-122
-124
-115
-99
-92
-94
-99
-113
-120
-106
-92
-85
-76
-71
-62
-50
-43
-41
-34
-32
-32
-20
-9
-9
-9
4
11
11
13
20
32
34
27
41
57
55
53
64
69
64
50
34
39
23
-6
0
23
25
23
27
41
53
48
48
60
60
60
69
80
80
73
71
80
94
104
106
104
99
90
85
90
83
50
39
48
20
-80
-175
-48
483
1252
1677
1342
450
-198
-147
-25
-168
-194
-127
-159
-171
-122
-104
-101
-80
-71
-67
-34
-4
2
16
46
62
76
106
138
154
161
177
175
157
143
115
64
30
11
-6
-27
-50
-67
-62
-55
-53
-41
-36
-32
-16
-6
4
18
18
11
20
39
43
27
-2
-30
-34
-18
-11
-27
-62
-73
-55
-43
-36
-39
-53
-41
-23
-23
-11
0
-11
-16
-4
-2
2
4
-6
-4
16
20
13
11
4
-6
-16
-6
0
-9
-13
-4
-2
-9
-6
-9
-11
-6
-4
-11
-13
-11
-4
-4
2
11
2
-20
-23
-16
-20
-25
-39
-97
-205
-279
-129
409
1155
1516
1113
210
-365
-256
-150
-300
-312
-226
-238
-247
-217
-208
-196
-166
-147
-131
-104
-83
-69
-41
-4
30
53
76
108
140
164
177
171
140
117
110
97
69
32
2
-20
-39
-48
-50
-50
-39
-25
-16
0
4
0
18
30
34
46
50
48
46
41
46
64
60
48
48
46
34
9
-25
-32
-16
-16
-39
-50
-46
-39
-30
-18
-13
-11
-4
9
20
16
20
30
27
32
46
43
36
48
62
62
64
69
64
64
62
48
62
80
71
69
83
69
48
55
69
64
64
69
41
-53
-127
50
593
1289
1566
1063
191
-214
-57
-6
-140
-138
-122
-177
-180
-150
-159
-166
-150
-136
-115
-85
-64
-71
-99
-106
-64
-4
36
64
90
106
115
120
120
104
80
62
36
4
-25
-53
-80
-87
-71
-62
-71
-67
-53
-48
-32
-11
-4
0
4
11
23
25
20
18
23
30
25
25
32
30
23
32
46
48
46
43
43
48
57
64
60
46
48
64
60
46
55
50
41
53
69
67
62
50
32
34
48
53
50
53
69
76
76
76
39
-11
-9
23
27
23
16
-13
-99
-177
-16
538
1278
1606
1111
224
-212
-85
-36
-166
-154
-94
-97
-90
-73
-69
-55
-36
-30
-32
-25
-18
-9
18
46
62
85
120
147
171
189
187
177
161
131
110
85
32
-18
-41
-55
-71
-80
-92
-101
-110
-120
-106
-87
-78
-64
-43
-36
-34
-23
-11
-11
-16
-9
-2
-25
-64
-64
-46
-41
-36
-32
-36
-41
-46
-32
-18
-18
-13
-4
0
4
18
25
23
27
36
36
32
27
27
39
43
50
55
48
50
69
83
80
53
34
46
27
-16
-16
2
4
16
27
6
-67
-173
-124
312
1090
1670
1453
559
-166
-191
-39
-140
-189
-108
-101
-110
-71
-57
-64
-43
-13
2
13
25
23
27
48
80
108
134
154
150
147
154
143
124
110
83
50
23
-16
-55
-80
-97
-101
-99
-99
-106
-108
-97
-73
-53
-43
-50
-41
-30
-32
-34
-34
-34
-32
-23
-16
-18
-18
-18
-20
-16
-9
-2
-4
-32
-50
-30
-11
-11
-6
-4
-4
2
20
30
20
16
23
30
39
46
46
34
34
50
57
60
60
60
67
67
64
67
62
32
11
23
41
50
46
41
53
62
50
50
67
57
39
57
78
80
85
87
87
85
80
69
57
50
53
67
76
64
-6
-134
-140
224
968
1652
1717
979
20
-247
-27
-67
-194
-136
-108
-136
-108
-85
-90
-73
-46
-27
-16
-16
-27
-20
4
25
34
55
78
94
110
134
134
90
41
25
30
16
-13
-39
-62
-80
-92
-94
-106
-136
-157
-140
-124
-117
-101
-90
-92
-101
-108
-94
-76
-78
-80
-71
-69
-71
-67
-60
-69
-76
-64
-50
-55
-67
-80
-99
-101
-87
-92
-97
-78
-71
-78
-73
-73
-78
-64
-53
-53
-64
-80
-69
-50
-53
-41
-20
-23
-20
-9
-2
4
20
25
23
34
39
34
46
55
53
62
69
69
69
73
78
85
83
76
53
20
23
39
39
46
50
32
27
48
46
23
23
25
-32
-147
-173
129
820
1523
1673
1021
50
-316
-117
-124
-258
-198
-147
-175
-161
-129
-117
-106
-97
-99
-85
-46
-13
0
16
39
69
99
131
164
177
180
184
182
175
168
152
124
106
90
69
48
32
13
-11
-9
16
18
9
11
9
9
23
39
23
-18
-36
-20
-9
-6
-13
-18
-11
-4
4
11
9
9
13
16
18
-4
-32
-20
2
4
4
9
6
13
25
27
23
16
11
9
13
20
27
13
-11
-18
-6
2
13
16
6
4
18
27
25
30
23
18
23
13
9
16
9
2
20
36
32
27
11
-25
-43
-43
-57
-67
-64
-69
-110
-210
-261
-41
550
1248
1462
899
6
-395
-240
-205
-330
-298
-258
-300
-286
-235
-219
-201
-175
-161
-140
-108
-92
-87
-60
-20
9
41
87
124
145
161
173
173
173
161
143
127
97
53
25
6
-16
-32
-27
-20
-13
0
13
23
23
32
55
67
57
41
41
55
60
50
46
48
46
46
46
48
60
67
53
43
53
60
60
64
69
69
60
30
-4
-20
-13
-4
0
6
6
9
0
-11
-11
-13
-11
-2
2
6
4
4
18
30
18
4
4
9
0
-16
-11
-4
-18
-27
-16
-11
-18
-16
-18
-71
-171
-150
198
878
1474
1407
630
-115
-208
-34
-108
-180
-101
-78
-99
-69
-43
-41
-20
0
6
20
46
62
80
113
136
157
194
224
231
226
224
198
154
143
136
94
46
-9
-69
-90
-94
-110
-131
-161
-175
-145
-113
-104
-97
-85
-69
-53
-36
-23
-25
-30
-20
-4
4
11
4
-4
0
9
9
16
16
2
4
25
32
30
30
23
30
48
57
53
43
39
48
62
71
73
69
67
73
78
85
90
83
80
92
94
71
46
55
73
64
50
57
53
23
13
25
23
25
32
2
-85
-173
-80
374
1109
1585
1331
471
-233
-251
-110
-224
-261
-173
-164
-173
-143
-127
-122
-97
-69
-57
-57
-41
-13
9
39
73
99
115
147
180
203
214
212
194
182
171
152
120
78
43
23
9
4
-4
-20
-16
9
23
23
11
-2
-9
-2
9
11
9
9
13
20
30
34
30
20
16
23
34
39
32
36
43
43
43
27
0
-4
4
6
13
25
25
20
27
36
34
23
16
23
25
30
46
43
32
46
53
50
60
60
60
64
62
64
71
62
53
64
83
87
64
32
25
30
16
6
16
13
-11
-43
-78
-173
-256
-67
550
1326
1650
1176
249
-295
-180
-92
-235
-231
-159
-180
-194
-168
-164
-168
-159
-147
-131
-110
-99
-101
-113
-110
-78
-46
-30
-23
-11
6
16
6
0
-4
-20
-36
-43
-64
-97
-120
-124
-129
-129
-117
-104
-94
-83
-69
-55
-41
-32
-32
-25
-4
6
11
11
4
2
-4
-20
-30
-23
-18
-11
2
11
9
11
16
20
30
39
43
39
32
39
60
71
69
60
57
69
85
90
87
76
73
87
97
90
71
32
2
13
27
30
39
36
30
41
48
50
60
67
71
76
78
87
83
53
48
76
83
76
76
25
-87
-122
122
728
1428
1620
1021
129
-247
-99
-83
-214
-173
-110
-131
-117
-85
-90
-78
-50
-41
-39
-39
-43
-25
11
39
60
80
106
138
164
180
187
175
154
145
129
94
50
9
-25
-48
-57
-60
-64
-69
-67
-48
-30
-27
-43
-78
-80
-53
-36
-39
-73
-108
-94
-78
-78
-62
-57
-83
-85
-62
-48
-48
-55
-67
-73
-76
-87
-94
-92
-94
-87
-64
-55
-67
-73
-64
-50
-46
-36
-30
-34
-36
-39
-32
-20
-30
-36
-23
-13
-4
2
-6
-16
-6
-11
-34
-50
-50
-43
-34
-27
-48
-134
-201
-34
501
1220
1564
1134
261
-228
-108
-30
-154
-136
-69
-87
-92
-64
-62
-83
-94
-67
-30
-18
-9
9
20
30
50
71
78
80
108
136
134
122
120
108
94
71
36
6
-16
-48
-67
-62
-62
-67
-57
-41
-27
-11
-2
0
11
20
23
30
20
9
16
23
18
23
23
20
23
25
32
34
41
48
46
48
60
64
64
64
62
67
76
83
83
80
80
90
94
94
99
94
87
85
90
97
94
90
76
60
64
92
92
55
34
53
60
48
39
32
27
39
46
18
-76
-161
-4
570
1349
1710
1271
353
-198
-85
-2
-154
-145
-71
-101
-115
-80
-64
-73
-94
-92
-50
-27
-16
2
6
9
34
62
73
87
99
108
117
120
106
76
50
39
16
-18
-39
-67
-104
-113
-101
-99
-97
-97
-92
-94
-113
-117
-115
-140
-159
-138
-124
-127
-122
-124
-138
-129
-108
-110
-113
-106
-101
-92
-85
-85
-80
-71
-60
-60
-71
-62
-43
-41
-34
-23
-13
-9
-2
2
13
23
30
36
39
46
53
57
62
67
71
78
80
83
92
92
85
80
90
113
124
115
113
117
97
85
101
106
94
97
106
67
-57
-168
-9
570
1333
1714
1338
404
-240
-150
-18
-161
-166
-85
-108
-110
-64
-50
-53
-43
-30
-20
-13
0
23
46
73
97
104
110
134
145
143
145
143
127
110
97
83
60
25
-2
-23
-43
-48
-48
-53
-41
-25
-25
-16
2
2
0
4
4
11
18
16
20
23
16
20
27
25
13
-6
-11
4
16
11
4
2
9
27
36
25
-2
-32
-39
-16
-4
-16
-41
-64
-60
-57
-69
-57
-43
-39
-27
-11
-9
-18
-11
2
11
25
30
18
16
25
32
46
62
64
60
69
71
55
48
55
55
50
60
55
-32
-161
-90
376
1100
1573
1328
489
-157
-124
23
-94
-134
-64
-92
-129
-92
-60
-55
-43
-32
-27
-13
6
25
43
67
90
115
147
166
168
164
154
140
117
76
32
9
-4
-39
-69
-97
-131
-143
-129
-120
-115
-110
-106
-92
-67
-57
-69
-64
-48
-41
-39
-30
-16
-18
-39
-39
-23
-25
-41
-48
-46
-46
-36
-25
-20
-18
-13
-6
-4
0
6
2
-11
-27
-27
-6
-4
-18
-13
-4
9
18
20
20
27
30
27
36
50
55
41
30
48
60
34
20
39
48
43
48
50
16
-80
-136
76
649
1322
1534
1000
154
-226
-78
-48
-168
-131
-78
-97
-76
-39
-34
-36
-18
-9
-23
-23
2
27
48
67
90
129
164
177
189
194
175
152
129
101
64
18
-20
-43
-67
-97
-117
-145
-180
-177
-150
-136
-127
-117
-113
-106
-99
-92
-83
-85
-78
-60
-57
-60
-53
-50
-46
-36
-32
-30
-30
-27
-16
-11
-9
-2
-9
-43
-57
-41
-30
-32
-25
-20
-18
-6
0
-11
-23
-18
-6
4
16
18
11
13
27
39
48
46
36
34
46
73
90
55
20
34
36
20
32
46
32
30
46
27
-71
-166
-13
552
1308
1680
1291
385
-208
-110
2
-129
-127
-57
-87
-87
-43
-32
-27
-18
-23
-4
25
43
60
73
80
101
138
159
159
136
104
99
104
76
43
25
6
-11
-32
-60
-80
-92
-106
-104
-87
-69
-62
-64
-57
-41
-34
-27
-9
-20
-48
-39
-18
-20
-23
-18
-18
-18
-11
-4
-9
-16
-16
-6
-4
0
2
2
6
16
20
23
20
11
20
43
53
46
43
46
50
53
62
67
55
41
53
71
71
69
69
64
64
64
55
43
34
36
62
80
73
50
23
2
2
13
16
-16
-53
-50
-55
-140
-228
-108
402
1141
1555
1236
360
-268
-201
-73
-205
-219
-136
-159
-184
-145
-117
-113
-106
-97
-87
-73
-55
-32
-16
-4
16
43
64
73
76
67
57
46
34
23
6
-13
-41
-76
-106
-127
-147
-164
-164
-166
-182
-182
-164
-140
-129
-124
-113
-97
-92
-83
-71
-71
-73
-85
-110
-113
-94
-90
-90
-83
-80
-76
-87
-104
-94
-78
-73
-60
-48
-55
-48
-34
-39
-39
-25
-16
-6
-2
-2
6
16
18
23
32
46
55
50
43
46
55
60
55
57
76
87
83
80
92
99
87
69
67
73
71
62
50
20
-73
-157
-4
517
1229
1583
1164
312
-159
-43
27
-104
-92
-30
-43
-39
-27
-60
-64
-20
-11
-43
-50
-32
-11
18
43
64
90
110
131
157
171
159
136
113
90
76
62
32
-13
-50
-64
-76
-87
-97
-101
-90
-73
-55
-36
-36
-36
-27
-16
-2
9
0
-13
-9
-6
-20
-20
-6
-20
-32
-11
2
2
-16
-53
-69
-41
-20
-18
-18
-23
-20
-4
11
13
6
-2
0
13
27
34
11
-20
-11
18
20
0
-20
-13
11
25
20
6
-27
-64
-62
-41
-36
-43
-43
-43
-67
-147
-221
-87
422
1139
1504
1123
265
-275
-180
-78
-208
-210
-129
-136
-145
-129
-129
-115
-83
-67
-50
-27
-11
0
18
46
71
97
127
161
182
182
173
161
145
127
101
67
36
9
-20
-39
-55
-73
-97
-113
-99
-85
-104
-94
-62
-55
-53
-34
-30
-34
-25
-16
-11
-9
-34
-67
-55
-36
-39
-32
-27
-25
-16
-9
-2
6
11
16
27
30
23
32
43
41
30
23
36
48
39
48
60
57
57
62
64
69
80
90
90
85
87
92
92
92
101
115
115
115
124
117
99
97
99
87
62
55
39
-41
-147
-127
238
954
1587
1571
815
-13
-175
6
-64
-152
-71
-43
-71
-57
-48
-73
-67
-27
-6
-9
-6
4
32
60
71
87
106
124
145
147
131
106
62
16
9
18
0
-34
-57
-83
-108
-108
-110
-117
-113
-92
-78
-73
-69
-67
-62
-46
-36
-41
-46
-43
-39
-39
-50
-76
-108
-127
-124
-108
-97
-94
-97
-101
-101
-90
-78
-78
-78
-83
-83
-71
-62
-50
-46
-57
-55
-36
-32
-27
-18
-23
-32
-11
13
16
-6
-36
-48
-41
-27
-23
-25
-18
-4
0
0
11
34
39
43
60
60
48
36
36
50
69
69
55
0
-117
-134
198
878
1499
1516
811
23
-147
11
-62
-157
-90
-71
-87
-46
-16
-25
-13
16
36
36
36
50
67
90
127
150
159
175
208
224
212
196
180
159
138
117
92
60
23
-20
-55
-64
-60
-76
-120
-134
-106
-94
-80
-60
-57
-57
-48
-39
-30
-27
-30
-16
-16
-25
-18
-16
-20
-11
-2
-2
0
9
6
6
11
6
-6
-27
-41
-34
-16
-4
-2
-2
2
11
20
27
30
27
27
39
46
46
53
57
55
53
62
76
53
13
23
34
16
11
27
25
11
20
18
-60
-173
-124
265
956
1520
1414
612
-152
-221
-34
-124
-198
-120
-99
-115
-83
-55
-46
-36
-18
2
20
46
67
73
78
94
115
122
145
171
166
157
159
147
120
90
76
55
2
-43
-64
-85
-99
-99
-99
-97
-85
-73
-55
-36
-27
-30
-30
-25
-20
-13
-4
-6
-18
-32
-25
-6
-6
-23
-23
-6
-2
-6
2
9
2
6
23
30
27
23
20
36
48
43
39
16
-13
-6
18
27
27
18
11
20
32
23
11
11
4
-11
-11
4
11
11
11
27
53
53
23
13
32
41
41
50
41
-46
-154
-85
362
1125
1668
1472
621
-104
-131
23
-97
-161
-78
-64
-78
-46
-30
-32
-18
0
13
20
25
36
57
87
117
140
152
164
180
191
182
159
131
104
87
83
64
34
2
-34
-69
-92
-94
-106
-138
-150
-147
-147
-129
-117
-115
-104
-92
-83
-71
-69
-71
-67
-55
-53
-60
-83
-104
-99
-85
-80
-73
-64
-57
-55
-53
-43
-39
-48
-55
-48
-36
-30
-27
-32
-25
-16
-13
-9
-6
-13
-9
-6
-6
4
2
-6
2
9
4
4
9
6
0
-6
-4
0
-6
-13
-9
-11
-13
-9
0
-2
-18
-39
-53
-64
-90
-90
-85
-161
-265
-191
268
1033
1564
1379
550
-177
-210
-46
-145
-191
-113
-113
-134
-99
-76
-71
-64
-71
-67
-30
2
13
27
48
57
71
94
115
129
131
134
138
124
108
101
83
64
60
39
4
-18
-30
-27
-16
-13
-16
-6
2
6
4
2
11
20
18
18
20
11
-6
-16
-9
2
6
6
-2
-36
-62
-41
-16
-25
-23
-13
-18
-11
18
25
13
11
23
32
41
39
20
13
25
32
39
50
48
46
53
60
69
71
60
62
73
73
80
87
73
62
80
101
110
110
97
99
108
92
85
94
85
67
69
69
20
-92
-129
143
778
1428
1527
882
43
-221
-36
-43
-152
-120
-124
-168
-138
-99
-90
-83
-73
-62
-39
-6
4
-20
-39
-11
23
34
43
60
76
87
90
85
78
57
36
30
11
-23
-50
-71
-83
-90
-94
-83
-64
-62
-62
-39
-13
-9
-18
-13
4
9
4
11
11
0
-16
-20
-9
0
-2
-11
-11
0
11
18
16
-9
-25
-9
6
2
2
11
16
23
32
34
36
39
39
41
53
62
57
53
57
60
50
13
-16
-4
20
27
16
13
30
30
9
16
34
30
27
36
32
-25
-127
-97
258
929
1502
1430
674
-55
-140
27
-57
-134
-57
-53
-106
-92
-55
-46
-39
-23
-6
11
20
25
36
46
41
39
64
99
115
122
131
134
122
110
87
64
48
25
-4
-30
-50
-64
-64
-64
-76
-80
-60
-48
-43
-27
-16
-16
-11
-4
2
9
4
-16
-50
-50
-30
-34
-43
-55
-80
-83
-55
-50
-53
-48
-39
-27
-16
-6
-4
-4
-13
-18
-6
2
-9
-39
-57
-36
-18
-20
-20
-11
-2
-11
-34
-34
-27
-32
-18
-4
-6
-6
-9
0
16
18
30
46
20
-11
0
16
4
-9
-20
-50
-145
-226
-60
513
1259
1601
1174
277
-261
-157
-83
-238
-238
-159
-173
-180
-150
-138
-129
-99
-76
-83
-104
-97
-69
-55
-36
-2
18
20
46
87
101
92
78
71
69
64
50
23
-11
-25
-48
-87
-104
-99
-94
-80
-57
-41
-32
-27
-23
-4
11
18
25
23
16
20
20
13
13
18
18
20
27
34
39
39
41
46
50
60
69
67
62
67
78
83
80
80
83
83
87
92
97
94
94
99
104
110
113
106
97
92
99
99
69
36
43
60
73
85
76
76
99
97
67
27
16
36
39
39
43
-13
-129
-113
261
977
1580
1520
751
-41
-168
2
-73
-157
-87
-69
-97
-76
-53
-57
-43
-18
-9
-2
18
41
62
80
85
94
117
127
136
152
154
136
110
69
43
41
23
-13
-43
-71
-87
-97
-104
-108
-127
-143
-129
-106
-97
-83
-73
-71
-53
-32
-34
-43
-60
-71
-64
-48
-43
-39
-36
-36
-30
-18
-11
-16
-11
0
-4
-20
-23
-13
-9
0
16
23
13
11
23
36
46
48
43
39
46
62
64
64
71
69
60
67
80
83
73
71
90
108
101
104
108
71
41
62
87
76
69
76
64
0
-104
-71
291
945
1479
1347
552
-136
-157
-16
-145
-205
-110
-101
-127
-87
-53
-60
-48
-23
-20
-23
-6
9
20
41
60
83
127
159
168
166
154
129
106
104
97
69
30
-2
-30
-60
-80
-92
-97
-97
-85
-71
-57
-50
-48
-36
-23
-20
-20
-27
-36
-36
-20
-13
-16
-20
-20
-18
-16
-2
6
0
-2
2
9
18
25
13
4
-9
-16
-2
-9
-48
-60
-36
-23
-18
-11
-11
-23
-25
-16
-6
-2
4
2
6
30
39
32
30
34
36
50
69
73
60
57
69
67
43
11
2
13
18
23
9
-83
-173
-41
476
1222
1617
1241
374
-191
-122
-11
-138
-150
-67
-76
-90
-62
-60
-60
-32
-16
-9
11
30
48
69
67
48
69
94
97
110
129
124
115
108
90
60
27
0
-34
-90
-124
-124
-131
-145
-136
-117
-108
-92
-76
-67
-57
-55
-43
-20
-20
-27
-18
-11
-11
-6
0
9
9
6
11
13
4
-9
-9
2
9
11
18
25
23
25
41
48
39
41
50
55
60
67
69
67
64
62
76
87
73
48
34
43
53
53
53
55
46
36
39
50
46
36
53
80
85
76
73
43
-4
-2
25
25
20
32
30
-13
-110
-150
106
765
1467
1640
1049
152
-214
-41
-30
-171
-138
-101
-145
-129
-78
-71
-64
-43
-36
-34
-23
-13
0
11
16
30
64
97
117
134
131
117
115
115
108
97
67
11
-27
-32
-39
-60
-76
-87
-94
-76
-48
-41
-53
-39
-18
-18
-23
-32
-57
-67
-50
-36
-34
-41
-55
-48
-32
-30
-39
-64
-92
-85
-64
-62
-57
-55
-67
-64
-53
-55
-62
-62
-64
-60
-48
-32
-27
-36
-43
-34
-25
-20
-23
-32
-32
-23
-18
-16
-13
-18
-23
-18
-13
-23
-30
-25
-18
-27
-48
-48
-32
-46
-71
-62
-46
-39
-23
-25
-60
-134
-203
-76
432
1157
1530
1155
318
-208
-129
-48
-173
-161
-83
-104
-115
-80
-67
-64
-43
-55
-94
-90
-69
-76
-64
-30
-2
20
48
83
117
129
122
117
115
104
94
76
41
11
-18
-39
-46
-62
-69
-60
-50
-34
-23
-25
-13
0
-11
-27
-25
-20
-23
-20
-16
-9
-11
-13
-2
4
-2
0
9
13
20
23
23
30
30
30
39
43
46
55
46
41
55
62
62
67
71
78
78
62
46
41
16
-2
13
34
34
36
46
50
60
73
62
41
43
60
67
71
76
60
-2
-99
-76
284
977
1555
1467
707
-30
-134
4
-97
-173
-101
-94
-131
-120
-124
-145
-110
-71
-64
-50
-27
-13
-4
18
32
34
57
90
113
140
154
129
110
113
106
83
57
18
-25
-48
-64
-92
-101
-101
-97
-73
-48
-34
-36
-60
-85
-71
-41
-32
-32
-34
-34
-20
-6
-9
-13
-13
-6
0
6
18
23
13
11
27
43
46
32
9
2
18
30
32
36
30
34
50
50
53
55
50
55
71
76
73
76
73
71
85
90
76
67
64
78
104
113
104
101
99
73
53
62
71
60
53
62
41
-48
-138
2
559
1319
1694
1303
402
-175
-78
23
-115
-113
-43
-83
-99
-53
-39
-50
-64
-80
-57
-20
-13
-11
0
2
-13
2
41
53
30
18
34
39
30
18
11
-4
-32
-60
-69
-78
-97
-108
-104
-92
-87
-83
-69
-53
-43
-34
-20
-11
-6
-11
-30
-27
-11
-16
-20
-9
0
2
6
4
-4
0
13
16
13
20
25
25
30
36
34
32
39
46
46
46
25
-9
-6
11
0
-13
-41
-85
-85
-71
-87
-90
-69
-69
-64
-53
-53
-46
-36
-36
-30
-13
-6
-6
-11
-4
6
-4
-20
-18
-16
-18
-9
-4
-36
-140
-221
-80
439
1174
1532
1111
221
-300
-177
-90
-240
-235
-152
-161
-168
-147
-145
-138
-122
-108
-78
-50
-48
-39
-9
13
27
46
60
80
106
120
122
106
78
57
41
18
-2
-48
-122
-173
-175
-164
-161
-166
-187
-201
-180
-150
-129
-115
-113
-106
-85
-69
-62
-53
-53
-57
-48
-32
-18
-20
-36
-46
-46
-36
-23
-13
-13
-11
-4
4
13
18
11
13
32
43
50
57
43
30
43
71
85
69
53
67
80
76
83
90
83
78
85
85
80
83
78
73
80
99
80
39
27
39
50
60
60
32
-53
-147
-32
452
1171
1573
1194
335
-198
-120
-16
-138
-154
-80
-80
-80
-48
-46
-57
-48
-39
-27
-2
11
13
34
71
101
120
143
171
180
180
171
145
122
106
90
71
32
-27
-78
-101
-115
-122
-120
-120
-108
-92
-90
-97
-85
-62
-57
-57
-43
-32
-36
-50
-64
-57
-41
-41
-43
-36
-30
-27
-18
-11
-13
-13
-6
-2
9
16
-18
-57
-39
-11
-11
-6
-2
-11
-11
0
6
13
23
23
25
30
41
48
50
50
57
62
64
69
80
78
67
67
78
90
101
110
110
108
97
83
85
99
90
67
69
67
-9
-117
-85
302
1033
1634
1557
755
-73
-198
-6
-92
-184
-110
-94
-122
-99
-76
-69
-46
-23
-13
-9
-6
2
20
30
39
64
78
85
120
147
134
90
53
50
53
30
11
-4
-34
-60
-67
-73
-78
-78
-73
-60
-43
-34
-30
-20
-9
0
11
18
16
13
20
20
13
4
-2
-4
0
9
16
20
18
16
11
-4
-11
0
-2
-9
4
20
20
25
27
27
32
41
50
55
53
55
62
71
78
76
57
50
60
76
80
73
69
69
78
87
85
55
16
11
25
30
34
23
-11
-9
23
23
4
0
6
16
30
34
18
-39
-150
-159
180
882
1513
1525
804
-43
-249
-53
-99
-205
-143
-113
-154
-164
-147
-145
-145
-131
-108
-80
-60
-50
-36
-6
20
43
69
90
113
140
150
138
124
108
94
90
78
53
25
0
-23
-34
-34
-34
-41
-34
-18
-9
6
23
23
20
23
23
25
13
-13
-25
-20
-20
-16
-13
-13
-9
-27
-41
-27
-11
-9
-11
-11
-2
6
6
9
18
18
13
4
-13
-11
4
6
6
11
9
13
25
32
34
46
41
30
41
55
53
53
48
43
48
53
53
55
60
71
80
83
87
78
53
55
73
67
57
62
60
11
-94
-94
242
901
1467
1421
697
-48
-187
-48
-129
-212
-164
-159
-177
-157
-157
-157
-127
-117
-122
-97
-60
-41
-27
-6
6
18
46
78
104
120
131
129
115
113
110
92
55
23
-2
-25
-41
-67
-106
-110
-90
-80
-71
-76
-101
-110
-83
-64
-62
-55
-53
-50
-39
-30
-27
-27
-34
-32
-16
-2
-9
-20
-13
2
18
20
16
9
6
9
13
13
6
-23
-55
-39
-11
-13
-13
-6
-4
0
18
27
27
25
11
-6
4
27
27
20
25
30
30
39
43
48
64
73
73
73
48
11
25
50
46
39
43
23
-64
-171
-87
379
1109
1573
1333
515
-150
-152
-18
-145
-196
-129
-136
-150
-122
-113
-106
-83
-62
-46
-36
-34
-32
-6
27
50
69
92
122
147
161
164
166
152
131
124
113
57
-18
-73
-104
-108
-108
-122
-122
-101
-90
-83
-57
-43
-41
-36
-34
-34
-34
-41
-39
-34
-32
-27
-16
-11
-13
-13
-11
-2
2
0
2
9
11
13
20
32
34
32
32
36
41
46
43
39
46
60
57
46
39
36
39
41
48
53
57
57
55
53
60
64
60
53
60
71
80
92
90
62
34
2
-30
-32
-16
-11
-13
-43
-122
-235
-277
-36
600
1308
1488
901
18
-342
-166
-159
-298
-254
-205
-244
-228
-187
-191
-182
-152
-150
-140
-106
-85
-69
-41
-18
-2
20
50
83
106
104
87
64
46
32
25
6
-30
-64
-73
-78
-101
-129
-134
-124
-117
-106
-90
-83
-87
-80
-62
-50
-53
-64
-80
-83
-67
-53
-46
-48
-57
-46
-20
-23
-46
-67
-101
-113
-90
-71
-64
-57
-53
-48
-34
-18
-9
-13
-11
4
16
18
27
30
25
36
48
50
60
62
55
62
71
76
87
85
69
62
76
90
80
76
97
113
106
110
113
90
73
92
104
104
101
78
11
-83
-62
298
982
1536
1430
672
-57
-161
-4
-83
-152
-85
-85
-115
-99
-94
-94
-76
-60
-50
-46
-43
-23
16
50
57
32
30
80
122
136
147
138
115
110
115
108
80
36
0
-13
-25
-43
-48
-50
-60
-55
-32
-16
-11
-13
-4
16
27
27
23
27
27
23
36
48
36
20
16
20
32
25
-13
-43
-50
-57
-48
-30
-30
-30
-23
-30
-36
-25
-13
-16
-18
-4
9
9
13
20
13
16
34
39
43
48
46
50
50
20
-9
6
25
32
46
39
11
18
39
39
36
43
23
-48
-138
-104
251
924
1497
1426
677
-48
-143
11
-67
-136
-73
-62
-87
-64
-36
-30
-18
4
18
20
23
11
-4
2
34
62
83
99
106
117
127
127
124
113
92
76
53
13
-11
-25
-53
-78
-73
-64
-57
-46
-39
-39
-32
-13
2
9
11
-11
-46
-41
-9
-11
-27
-32
-41
-41
-25
-13
-9
-13
-13
0
13
16
18
16
11
23
34
30
27
39
46
48
55
67
64
57
62
64
57
39
25
23
32
32
25
27
30
20
20
32
50
67
64
53
55
60
55
57
55
41
50
71
57
-20
-131
-90
328
1063
1622
1497
691
-73
-140
34
-69
-145
-76
-69
-90
-69
-50
-67
-90
-80
-48
-25
-13
-27
-60
-50
-9
13
18
32
55
76
85
87
78
53
32
20
2
-30
-80
-127
-147
-159
-171
-159
-147
-147
-145
-134
-113
-101
-101
-94
-80
-71
-69
-57
-53
-67
-78
-69
-62
-67
-69
-67
-67
-62
-60
-57
-53
-57
-62
-57
-46
-48
-62
-76
-78
-57
-36
-30
-23
-13
-13
-9
6
2
-34
-48
-23
-6
-13
-6
6
11
16
25
30
34
36
46
67
76
80
85
60
9
-9
9
30
34
34
27
-30
-136
-120
265
991
1578
1513
758
-34
-166
11
-62
-136
-53
-41
-73
-41
-16
-25
-13
2
4
23
46
55
62
78
90
94
113
140
157
164
161
157
152
134
117
99
69
46
25
-4
-25
-46
-57
-43
-30
-32
-39
-55
-69
-50
-30
-30
-27
-18
-25
-57
-80
-69
-60
-64
-60
-48
-36
-34
-32
-23
-20
-11
2
6
-2
-6
0
18
32
30
27
30
46
57
57
50
50
50
55
69
69
46
39
50
57
48
46
53
36
11
20
43
48
27
11
25
36
34
46
43
-20
-131
-138
171
820
1446
1481
792
11
-164
9
-62
-201
-143
-97
-131
-143
-134
-113
-87
-71
-48
-27
-18
-4
18
39
67
92
115
143
173
189
194
189
177
157
124
101
71
20
-23
-50
-67
-94
-127
-136
-124
-108
-97
-83
-64
-57
-60
-55
-43
-30
-23
-18
-23
-27
-23
-16
-9
-11
-23
-18
-4
4
6
4
0
2
9
20
34
32
9
9
32
30
11
0
-2
4
18
25
2
-36
-41
-13
2
18
20
4
16
41
32
13
18
23
27
36
39
32
-36
-136
-62
367
1053
1523
1289
464
-164
-134
6
-101
-134
-64
-71
-73
-27
-18
-27
-2
18
25
48
69
76
97
127
154
177
196
219
247
258
244
235
226
194
164
143
113
67
25
-13
-64
-106
-117
-124
-127
-113
-101
-101
-97
-97
-117
-124
-106
-99
-104
-120
-143
-140
-120
-120
-120
-113
-113
-108
-104
-110
-122
-138
-152
-143
-124
-117
-113
-104
-94
-78
-71
-73
-69
-55
-48
-41
-32
-25
-25
-32
-25
-4
2
-4
-6
-2
0
2
4
9
11
0
-11
-6
0
-2
-2
0
4
2
-20
-41
-32
-27
-46
-50
-32
-27
-39
-34
-27
-83
-191
-198
134
848
1497
1481
721
-97
-256
-71
-131
-224
-161
-136
-154
-124
-92
-80
-55
-34
-25
0
27
48
71
87
90
106
145
182
205
210
203
205
208
191
161
124
92
62
32
11
-13
-48
-67
-53
-43
-41
-39
-39
-30
-13
-4
-6
-27
-41
-30
-11
-4
0
-4
-16
-13
4
11
11
11
11
18
30
32
32
30
25
32
36
32
18
-9
-25
-9
6
11
11
11
16
27
34
39
48
50
55
64
67
69
80
78
73
83
90
92
94
94
92
94
92
101
117
115
99
106
120
108
99
99
94
94
99
101
53
-69
-147
39
633
1393
1726
1278
355
-189
-62
6
-175
-180
-97
-108
-97
-55
-57
-62
-50
-41
-30
-16
2
23
39
60
87
106
124
154
161
154
147
108
62
53
48
30
6
-25
-53
-62
-76
-92
-92
-83
-78
-80
-67
-41
-39
-46
-36
-25
-20
-9
-2
-2
6
13
6
4
6
4
-2
-18
-30
-23
-16
-16
-11
-2
2
9
13
9
11
27
36
32
25
32
36
30
20
25
32
39
48
55
55
53
50
53
64
71
76
85
85
69
67
71
67
50
30
32
50
50
55
64
57
60
80
78
39
18
25
34
36
46
34
-53
-154
-57
406
1137
1606
1326
464
-171
-138
-34
-175
-196
-117
-127
-127
-85
-85
-106
-87
-64
-62
-55
-39
-30
-20
-4
20
48
64
83
122
152
152
143
129
122
117
97
67
39
4
-30
-50
-55
-50
-53
-64
-57
-30
-11
-4
0
-2
0
13
27
23
-9
-50
-53
-32
-25
-30
-43
-46
-30
-20
-20
-13
-11
-20
-16
2
-6
-36
-73
-101
-92
-69
-53
-50
-64
-62
-36
-20
-11
-4
-6
-23
-34
-23
-2
0
-6
-9
4
27
32
27
32
34
43
64
71
64
64
62
53
50
64
71
53
34
32
-16
-129
-117
240
922
1511
1451
677
-101
-219
-60
-150
-221
-150
-168
-219
-182
-150
-143
-122
-108
-104
-80
-50
-25
-6
-6
2
43
87
117
140
154
166
171
164
152
138
113
76
36
2
-23
-46
-55
-53
-55
-50
-30
-13
-9
0
6
16
27
34
36
39
46
50
48
41
46
53
46
46
53
46
41
50
46
32
30
34
39
43
50
55
50
46
53
62
57
48
30
6
11
27
30
36
39
11
-13
-2
6
0
6
23
30
27
27
34
41
50
60
53
53
62
53
43
53
57
57
67
60
36
-30
-136
-87
369
1134
1645
1435
598
-122
-159
-2
-110
-175
-110
-120
-152
-115
-90
-101
-99
-90
-83
-64
-34
-9
-2
-11
-18
2
50
85
99
113
113
110
115
106
85
46
-16
-69
-101
-127
-134
-143
-157
-145
-122
-106
-101
-104
-106
-99
-80
-67
-69
-67
-57
-46
-34
-34
-43
-50
-48
-43
-46
-41
-36
-48
-55
-43
-34
-32
-32
-39
-41
-23
-9
-18
-27
-23
-9
-4
-11
-13
0
2
2
16
32
36
36
36
41
50
64
71
62
60
69
73
83
90
90
94
97
87
73
55
36
41
60
64
62
69
46
-50
-152
-67
413
1178
1650
1389
533
-182
-194
-36
-154
-198
-115
-113
-122
-97
-92
-104
-101
-80
-55
-46
-34
-9
9
30
53
71
99
124
131
138
145
140
134
127
115
108
94
55
6
-16
-18
-25
-34
-36
-25
-13
-9
0
9
20
27
25
18
9
-4
-6
9
13
6
6
4
-2
2
11
16
13
9
11
27
30
25
18
-13
-27
-6
-4
-11
0
9
11
13
16
23
27
25
30
48
55
50
50
60
55
32
13
27
27
-6
-6
18
4
-16
-4
4
6
13
18
4
-60
-161
-110
307
1014
1523
1319
492
-152
-127
20
-99
-164
-97
-87
-97
-64
-60
-71
-53
-36
-36
-23
-4
6
30
60
87
106
120
143
157
154
154
147
104
62
53
41
9
-23
-60
-92
-110
-120
-120
-117
-110
-99
-92
-97
-92
-76
-62
-50
-39
-32
-25
-25
-30
-23
-11
-6
-4
-11
-18
-2
16
6
0
11
16
20
36
43
34
32
32
9
-4
11
11
-11
-9
6
9
16
25
25
30
41
48
69
80
60
53
76
83
69
57
62
69
76
87
83
2
-127
-90
316
1033
1613
1493
642
-136
-196
-20
-110
-175
-110
-104
-110
-64
-39
-43
-34
-4
16
25
39
62
80
104
134
152
159
177
203
212
205
203
201
180
157
134
83
4
-60
-104
-129
-134
-127
-122
-115
-108
-99
-83
-67
-60
-57
-57
-55
-36
-25
-27
-25
-16
-18
-23
-25
-36
-64
-83
-78
-62
-48
-43
-43
-50
-64
-64
-50
-64
-99
-104
-85
-73
-67
-57
-46
-39
-43
-43
-34
-27
-27
-20
-18
-16
-9
-6
-4
2
0
2
4
-9
-18
-6
2
0
-16
-32
-23
-23
-46
-50
-39
-41
-48
-36
-32
-76
-182
-235
23
697
1428
1615
1026
117
-261
-80
-71
-205
-145
-83
-110
-94
-57
-53
-43
-32
-30
-13
13
23
34
69
101
108
115
131
127
120
134
145
131
113
104
94
71
39
2
-36
-62
-71
-80
-87
-87
-83
-76
-67
-57
-46
-46
-57
-73
-80
-60
-48
-50
-48
-39
-32
-20
-20
-32
-30
-18
-6
2
2
2
2
6
18
30
27
25
23
32
43
50
53
55
50
32
25
43
55
41
43
60
67
64
69
69
62
71
85
87
94
90
78
85
94
101
97
50
16
41
57
53
67
78
69
76
80
55
34
32
23
2
2
13
-46
-171
-171
196
919
1550
1543
804
-30
-208
-16
-78
-208
-168
-134
-143
-117
-83
-76
-73
-64
-53
-32
-11
-4
0
20
50
87
115
117
124
136
134
127
122
108
85
67
53
27
-6
-36
-64
-80
-83
-76
-69
-62
-55
-46
-39
-34
-27
-18
-18
-23
-30
-41
-71
-99
-87
-87
-117
-113
-92
-99
-101
-83
-67
-60
-62
-57
-43
-36
-39
-34
-27
-23
-13
-4
-2
9
16
9
6
25
41
36
18
16
27
27
23
32
43
43
43
55
60
57
53
57
60
64
73
69
60
73
78
83
90
87
99
108
83
62
67
71
69
69
48
-18
-122
-129
191
857
1467
1458
707
-113
-284
-104
-154
-242
-177
-161
-173
-129
-106
-117
-115
-97
-90
-87
-71
-50
-34
-11
13
36
69
99
104
113
138
150
131
110
101
90
67
39
6
-27
-55
-62
-62
-64
-62
-55
-46
-30
-13
-4
-4
-4
4
18
30
27
18
13
23
18
0
-9
-9
-16
-13
2
4
2
-2
-23
-36
-20
-6
-11
-30
-60
-69
-46
-32
-30
-48
-78
-69
-43
-41
-41
-39
-32
-16
-11
-9
2
0
-4
9
18
16
13
9
16
39
57
57
53
60
67
55
46
57
64
48
39
36
2
-97
-166
25
614
1352
1629
1113
219
-238
-122
-92
-233
-201
-145
-189
-180
-122
-110
-106
-92
-97
-104
-71
-36
-18
-4
16
46
80
106
136
154
152
159
168
157
131
87
43
18
-2
-27
-50
-76
-87
-83
-76
-64
-48
-43
-39
-27
-11
4
9
6
6
16
34
41
32
23
23
32
36
39
34
25
25
34
48
53
48
39
27
20
23
30
34
27
23
34
50
50
43
41
25
4
11
27
30
25
27
36
43
46
50
55
60
57
50
50
57
62
71
80
64
25
2
-2
-4
0
0
-11
-9
-6
-60
-171
-205
78
769
1479
1613
970
62
-279
-113
-124
-249
-196
-154
-182
-157
-117
-120
-113
-85
-73
-76
-73
-48
-30
-41
-46
-4
39
57
78
99
108
120
120
87
57
46
34
11
-13
-34
-48
-62
-71
-62
-48
-46
-46
-27
-11
-9
-2
-2
-18
-11
11
18
18
20
16
6
9
27
36
16
-13
-32
-20
-6
-9
-11
-6
2
9
11
20
25
20
23
34
48
48
39
41
43
36
36
39
34
25
32
55
69
62
50
46
57
67
78
73
39
13
30
48
55
67
62
57
69
69
57
55
57
60
69
71
32
-94
-182
11
584
1296
1550
1026
173
-217
-69
-27
-154
-138
-101
-131
-129
-104
-94
-90
-92
-76
-41
-25
-20
-25
-32
-11
27
62
97
117
120
120
124
129
127
108
87
80
62
30
-4
-41
-69
-71
-64
-57
-43
-43
-64
-60
-34
-25
-25
-18
-11
-4
-2
2
9
6
4
6
9
-4
-20
-23
-20
-16
-4
2
0
0
9
20
25
25
23
32
41
32
32
43
46
41
43
50
55
39
6
-2
2
2
11
25
18
-2
4
18
13
0
-16
-25
-20
-4
-4
-27
-36
-25
-20
-23
-13
-23
-99
-214
-184
217
938
1476
1312
506
-201
-240
-85
-198
-258
-177
-184
-224
-194
-173
-177
-159
-143
-150
-143
-129
-120
-101
-76
-55
-39
-16
18
50
64
73
83
76
64
57
46
18
-20
-48
-67
-80
-90
-92
-87
-87
-85
-67
-55
-64
-83
-85
-62
-46
-48
-43
-32
-20
-13
-11
-11
-11
-9
-4
0
-13
-30
-34
-27
-13
2
11
2
-2
13
25
18
6
2
9
16
23
34
43
46
43
46
50
57
64
67
64
73
87
85
83
80
80
87
99
99
94
85
78
97
122
129
127
117
99
80
83
94
92
80
73
64
-2
-99
-60
337
1053
1606
1474
656
-120
-205
-46
-145
-201
-115
-131
-187
-152
-110
-115
-108
-92
-97
-90
-69
-64
-57
-32
-6
13
43
78
99
108
110
110
106
97
92
78
46
23
4
-18
-43
-83
-115
-108
-92
-83
-67
-60
-60
-43
-30
-23
-11
-13
-27
-23
-2
6
0
-2
4
11
13
11
11
13
11
13
27
41
36
23
23
25
43
64
53
23
16
27
34
32
6
-27
-25
-18
-23
-13
-9
-16
-6
6
11
11
13
20
30
36
41
46
46
46
41
41
60
71
64
57
60
73
94
90
73
85
90
73
64
60
57
71
73
39
-53
-157
-76
381
1104
1557
1298
473
-166
-140
-16
-145
-182
-122
-138
-145
-115
-104
-99
-87
-87
-99
-80
-43
-34
-32
0
23
30
55
69
60
78
106
97
85
87
73
57
46
9
-27
-41
-55
-76
-80
-64
-57
-67
-57
-25
-9
-11
-4
4
16
25
23
16
4
2
16
16
11
18
18
6
11
30
39
30
16
20
39
48
48
39
32
46
55
50
46
43
48
62
55
20
13
27
30
27
23
13
13
18
18
16
25
34
39
25
-4
-16
-2
18
18
-16
-60
-64
-36
-25
-27
-25
-62
-171
-203
64
679
1342
1472
850
39
-238
-90
-108
-219
-161
-110
-143
-147
-124
-124
-122
-101
-85
-73
-57
-39
-18
9
34
53
69
94
136
171
182
175
154
136
129
106
64
23
-20
-64
-90
-90
-83
-94
-101
-80
-55
-46
-34
-27
-34
-23
2
16
13
6
2
6
13
18
13
-11
-41
-36
-16
-6
-20
-55
-73
-55
-39
-48
-50
-39
-34
-36
-20
-4
-2
-11
-6
6
20
30
30
25
32
43
53
57
62
64
60
64
78
80
73
71
73
80
87
76
57
48
41
34
27
25
34
39
41
55
50
-27
-140
-113
254
977
1603
1546
748
-62
-187
-13
-99
-180
-108
-104
-138
-120
-113
-147
-147
-115
-104
-106
-92
-71
-48
-23
2
30
57
78
106
129
131
127
124
113
104
94
69
39
18
-6
-25
-34
-43
-41
-30
-30
-20
-9
-11
-4
9
-6
-27
-30
-25
-27
-48
-76
-69
-48
-43
-43
-34
-25
-20
-23
-20
-13
-11
-6
6
13
16
25
25
27
41
43
34
39
50
50
46
48
36
6
-13
-2
11
11
13
13
16
25
34
39
39
41
43
48
62
76
83
80
80
83
73
64
64
67
71
83
87
50
-53
-145
0
566
1322
1647
1190
279
-249
-127
-41
-182
-173
-104
-124
-131
-106
-106
-110
-104
-90
-67
-36
-25
-20
4
39
60
76
97
117
138
159
154
136
124
108
92
83
71
39
4
-20
-32
-39
-41
-39
-50
-80
-83
-55
-41
-39
-27
-23
-25
-13
0
-4
-9
-2
4
4
9
18
18
4
-4
-16
-27
-32
-27
-30
-20
-11
-6
4
13
11
11
25
34
27
23
36
43
39
39
53
57
48
53
69
71
69
73
69
55
53
57
60
67
69
67
73
73
55
46
53
62
67
71
55
-25
-136
-78
348
1056
1553
1335
522
-115
-106
16
-129
-182
-92
-90
-110
-87
-87
-99
-85
-80
-90
-106
-115
-94
-60
-46
-30
-4
11
25
50
71
76
67
53
43
30
11
-11
-50
-97
-127
-143
-152
-161
-166
-152
-143
-164
-171
-147
-136
-134
-117
-108
-113
-115
-113
-106
-104
-101
-83
-85
-113
-115
-90
-76
-71
-71
-69
-55
-48
-43
-27
-27
-39
-23
4
4
0
-2
-2
4
11
11
-20
-64
-64
-36
-32
-39
-32
-16
2
20
23
18
32
41
34
32
39
43
48
50
55
27
-64
-122
76
637
1340
1573
1021
171
-191
-36
0
-113
-80
-32
-53
-43
-11
0
13
25
27
48
69
73
87
110
122
150
184
210
228
238
238
231
214
191
168
131
87
57
34
-2
-39
-67
-94
-110
-97
-78
-85
-108
-120
-104
-83
-67
-55
-57
-60
-43
-30
-30
-23
-18
-20
-20
-13
-4
2
-2
-6
-4
-11
-11
-2
-4
0
20
23
18
27
32
30
39
50
50
53
53
55
55
55
53
27
-6
-2
18
20
23
27
27
32
39
41
36
20
11
18
27
39
55
55
34
18
9
0
-4
-4
-4
2
9
-9
-115
-254
-194
268
1033
1580
1407
559
-205
-244
-73
-189
-251
-168
-180
-210
-173
-152
-152
-145
-136
-115
-90
-76
-62
-34
-11
11
46
69
80
94
106
108
110
97
78
67
55
30
6
-11
-32
-43
-55
-71
-80
-85
-85
-71
-55
-43
-30
-23
-11
4
-2
-27
-32
-18
-6
-9
-13
-2
9
6
16
27
20
16
13
-9
-23
-6
0
0
6
6
2
0
11
25
23
18
27
39
39
48
60
62
67
71
67
71
80
80
92
108
90
71
87
104
101
101
108
110
104
101
110
115
101
87
85
90
94
104
110
110
110
115
113
97
69
46
55
73
73
48
-36
-147
-57
429
1178
1668
1456
603
-134
-140
27
-108
-182
-124
-145
-159
-120
-117
-129
-115
-108
-104
-76
-50
-46
-41
-16
25
53
64
64
55
69
101
106
87
73
71
67
48
30
2
-36
-60
-62
-62
-69
-85
-90
-78
-60
-39
-23
-11
-9
-9
-2
11
18
13
-2
-18
-9
4
0
-11
-9
0
9
18
23
25
16
16
27
41
46
41
30
23
25
27
39
41
23
25
53
67
62
50
48
60
69
67
57
32
9
23
36
25
25
34
32
34
43
48
57
53
34
36
50
53
55
57
43
41
57
55
41
41
41
32
30
30
-32
-177
-203
152
832
1428
1412
665
-115
-238
-67
-143
-233
-168
-145
-161
-136
-113
-120
-115
-97
-73
-43
-27
-25
0
32
53
78
108
134
157
175
196
210
196
171
164
147
110
76
20
-39
-60
-62
-87
-99
-78
-55
-50
-50
-57
-55
-34
-25
-20
-13
-13
-6
2
2
2
9
9
2
0
-2
-18
-34
-25
-16
-23
-16
-2
-2
-2
2
2
11
23
23
32
39
23
20
34
30
13
-13
-36
-23
2
2
-2
4
13
25
27
18
16
20
27
34
32
23
25
25
16
27
34
9
-36
-71
-71
-69
-90
-117
-173
-281
-295
13
677
1338
1393
681
-143
-344
-161
-203
-316
-249
-208
-251
-258
-226
-212
-201
-180
-157
-134
-120
-101
-71
-32
0
32
62
80
104
136
159
168
159
143
134
124
106
73
32
2
-9
-18
-23
-27
-34
-25
-2
11
18
27
32
39
46
53
64
73
69
67
64
57
53
48
43
41
46
50
57
43
11
6
27
32
34
39
34
36
46
48
27
2
2
18
36
48
48
41
46
57
62
64
64
57
46
50
64
71
80
83
76
69
73
87
104
94
76
83
90
69
55
60
60
57
69
67
4
-122
-191
43
693
1426
1634
1063
145
-286
-134
-97
-235
-205
-138
-157
-145
-108
-101
-97
-80
-55
-30
-20
-39
-41
-6
25
46
73
94
104
110
131
150
147
127
115
104
83
62
32
-4
-27
-41
-50
-46
-64
-94
-87
-64
-53
-36
-32
-34
-18
0
4
6
9
11
18
23
25
27
25
20
30
39
39
41
46
39
23
11
20
27
27
32
43
41
41
53
55
50
55
62
60
60
60
71
78
71
69
50
4
-23
-13
-4
-4
-2
-2
11
34
39
27
23
23
16
9
11
13
16
25
36
-2
-113
-180
41
684
1423
1643
1086
175
-244
-78
-43
-182
-161
-120
-152
-143
-113
-115
-117
-104
-87
-78
-71
-53
-36
-25
0
36
71
99
113
129
150
147
140
140
136
115
94
73
48
23
-6
-39
-43
-46
-69
-73
-60
-55
-48
-25
-11
-32
-73
-97
-76
-50
-50
-55
-55
-53
-41
-30
-27
-30
-36
-36
-25
-11
6
11
0
-2
9
13
16
18
18
25
36
39
34
36
36
27
20
20
27
32
27
27
39
53
57
53
39
39
50
60
62
57
57
73
85
80
69
39
-4
-9
4
-11
-34
-30
-36
-90
-187
-203
85
725
1356
1405
732
-43
-233
-69
-120
-217
-150
-117
-166
-182
-164
-143
-117
-101
-101
-97
-85
-71
-48
-23
-11
13
48
71
99
122
134
124
97
73
76
69
36
0
-25
-50
-69
-85
-101
-106
-94
-85
-71
-55
-46
-43
-32
-11
0
-9
-18
-4
6
-2
-9
-16
-30
-30
-30
-34
-36
-41
-50
-36
-25
-27
-30
-25
-13
0
0
2
6
0
4
18
20
18
6
