2616
3090
3607
3966
4280
4638
4915
5142
5442
5708
5842
5995
6228
6413
6529
6667
6829
6954
7021
7116
7280
7377
7377
7430
7576
7735
7784
7717
7774
7867
7811
7844
8045
8093
7936
7883
7938
7892
7821
7853
7867
7811
7781
7809
7837
7811
7737
7724
7966
8405
8745
8770
8255
7481
7201
7344
7319
7164
7125
7134
7081
7009
6993
6986
6910
6843
6852
6815
6702
6628
6593
6556
6501
6434
6411
6390
6307
6230
6219
6203
6147
6090
6090
6108
5990
5838
5854
5858
5724
5643
5655
5588
5405
5257
5186
5098
4982
4918
4895
4821
4712
4666
4652
4601
4543
4511
4472
4414
4361
4331
4308
4252
4169
4125
4104
4049
3991
3956
3908
3841
3790
3760
3730
3667
3598
3570
3545
3487
3443
3420
3378
3316
3258
3231
3207
3152
3097
3073
3043
2990
2960
2939
2888
2835
2810
2791
2757
2708
2667
2648
2613
2567
2558
2553
2468
2366
2373
2385
2262
2151
2156
2160
2123
2096
2075
2050
2019
2008
2026
2022
1973
1922
1897
1879
1844
1805
1779
1749
1717
1701
1694
1675
1652
1636
1594
1610
1879
2327
2623
2516
1959
1377
1254
1347
1287
1204
1204
1194
1176
1187
1187
1160
1144
1153
1153
1137
1132
1132
1118
1109
1116
1120
1109
1097
1100
1109
1109
1104
1116
1127
1125
1134
1162
1169
1134
1100
1100
1083
1014
936
896
845
751
681
674
663
626
612
617
614
610
621
633
630
619
621
633
635
628
621
621
624
617
614
614
600
587
589
587
573
559
561
561
550
545
550
545
533
533
540
540
536
529
524
515
510
513
517
510
499
494
496
487
480
483
480
471
462
457
434
406
390
385
383
385
392
404
409
379
335
318
316
279
231
221
226
221
224
235
233
231
242
244
217
265
610
1160
1490
1282
587
20
18
131
48
18
69
64
60
87
92
90
113
127
124
129
147
164
175
187
196
205
217
233
256
270
279
298
330
358
381
406
436
457
466
457
432
404
376
335
284
238
184
140
113
90
71
78
92
92
90
97
101
85
62
69
76
43
16
36
55
46
41
50
62
67
69
69
55
41
53
76
80
76
78
87
97
99
101
108
108
108
117
120
94
55
53
73
76
73
83
90
92
99
120
147
166
164
147
131
106
64
34
27
18
18
32
36
39
46
53
34
25
228
744
1245
1328
827
104
-154
-13
-9
-99
-87
-67
-76
-57
-36
-41
-32
-6
2
-2
0
4
-18
-48
-32
0
2
2
30
55
64
90
129
157
177
210
249
275
286
295
305
307
286
251
205
140
85
50
25
0
-20
-39
-46
-48
-62
-60
-39
-34
-36
-13
2
4
11
20
23
20
25
34
39
36
36
43
46
46
53
57
57
57
62
69
73
71
69
64
53
50
60
57
39
9
2
25
30
20
25
39
43
46
57
64
69
92
124
143
129
108
110
122
108
85
80
80
78
83
90
83
69
57
16
34
346
862
1160
973
365
-136
-140
-23
-85
-117
-67
-67
-85
-57
-36
-39
-32
-11
-6
-13
-18
-18
-20
-23
-16
0
13
11
13
36
62
76
92
120
145
164
187
212
210
154
101
108
106
60
20
-16
-60
-92
-104
-106
-110
-122
-117
-99
-90
-85
-73
-62
-55
-50
-50
-46
-46
-57
-78
-87
-78
-71
-76
-76
-71
-69
-62
-55
-57
-62
-53
-46
-46
-39
-32
-41
-46
-36
-25
-27
-34
-32
-23
-16
-18
-18
-23
-25
-23
-9
2
4
6
13
23
36
41
46
55
60
67
90
120
136
134
120
106
85
62
55
46
30
36
55
67
71
78
69
34
32
244
728
1169
1197
688
25
-161
-6
-13
-80
-48
-36
-50
-23
-4
-16
-6
20
30
27
41
53
57
64
83
99
104
108
127
136
124
122
147
157
154
180
217
238
244
249
258
268
254
224
184
129
76
36
11
-9
-23
-32
-34
-30
-25
-9
6
-16
-53
-41
-11
-13
-27
-25
-20
-23
-13
6
4
-23
-36
-23
-13
-13
-11
-2
4
13
23
30
34
39
48
60
64
64
67
73
71
71
83
101
104
87
73
71
55
20
20
39
39
48
90
115
104
83
83
99
94
71
64
69
71
73
80
97
104
92
60
113
450
1021
1423
1278
563
-76
-104
36
-41
-83
-20
-39
-94
-78
-67
-97
-87
-55
-53
-60
-57
-41
-18
-6
-4
11
32
43
50
73
99
120
143
173
203
228
254
277
277
256
240
231
196
134
76
27
-20
-64
-92
-106
-124
-134
-124
-110
-106
-94
-80
-69
-60
-50
-39
-27
-20
-20
-13
-6
-4
-4
0
0
-6
-6
2
6
0
-6
2
16
16
11
-4
-39
-71
-73
-53
-39
-46
-43
-30
-23
-20
-4
11
6
6
23
39
48
64
85
106
108
90
78
85
69
41
46
57
50
46
57
69
69
69
50
62
305
822
1273
1280
718
32
-129
27
4
-55
-4
13
-6
11
32
30
32
30
25
25
23
27
43
53
53
62
83
94
94
85
78
92
120
152
182
203
219
240
254
247
233
219
164
41
-64
-99
-127
-180
-219
-238
-251
-251
-235
-224
-221
-212
-189
-168
-159
-154
-147
-131
-122
-122
-108
-97
-101
-104
-92
-83
-83
-85
-78
-71
-67
-64
-57
-60
-67
-67
-62
-71
-85
-80
-71
-71
-71
-69
-64
-64
-67
-64
-57
-60
-71
-83
-97
-97
-90
-80
-62
-46
-30
2
30
27
16
25
32
16
2
6
11
4
-2
9
20
0
-30
-46
6
309
813
1146
1007
418
-117
-152
-25
-71
-101
-48
-39
-53
-25
2
2
4
16
20
18
25
41
48
46
43
48
67
83
87
104
122
140
159
184
212
228
240
258
270
265
235
194
164
131
83
41
2
-43
-69
-69
-69
-78
-78
-73
-71
-73
-73
-69
-60
-57
-48
-32
-25
-25
-13
-13
-43
-73
-67
-46
-73
-113
-104
-78
-78
-73
-57
-46
-43
-32
-18
-6
-4
0
9
16
13
20
23
13
13
30
36
36
39
43
50
60
60
62
73
78
76
85
104
99
73
78
113
97
41
34
60
48
25
25
32
34
34
39
36
27
32
30
16
189
665
1157
1266
808
101
-159
-6
6
-76
-34
0
-25
-11
23
4
-36
-41
-20
-39
-73
-62
-25
-20
-30
-16
13
18
18
39
64
78
101
136
168
196
214
233
251
256
249
249
226
171
124
85
9
-71
-106
-113
-122
-129
-127
-117
-113
-108
-94
-83
-71
-67
-73
-69
-57
-48
-36
-30
-36
-39
-25
-16
-23
-18
-6
-4
-4
4
16
18
18
27
41
43
36
39
46
34
2
-16
2
16
9
2
2
4
9
11
9
6
20
39
53
55
60
85
117
124
106
106
117
110
87
67
41
25
25
32
43
53
57
36
16
194
702
1257
1423
938
117
-208
-43
-25
-117
-80
-48
-73
-55
-18
-11
-9
0
-2
-4
2
11
20
25
32
48
67
73
78
97
122
143
157
180
194
171
152
187
208
189
180
177
154
110
55
-4
-64
-143
-203
-210
-208
-219
-217
-205
-198
-196
-201
-208
-198
-184
-173
-154
-143
-140
-131
-127
-129
-134
-127
-120
-124
-129
-115
-97
-99
-97
-85
-83
-87
-80
-69
-64
-67
-69
-62
-53
-50
-46
-39
-36
-41
-39
-30
-27
-34
-39
-34
-27
-27
-30
-27
-30
-16
18
46
46
34
30
36
39
23
18
20
-4
-39
-27
2
6
-2
-23
16
307
806
1190
1137
538
-106
-189
-30
-76
-131
-92
-85
-94
-67
-48
-57
-60
-43
-23
-18
-13
2
16
20
32
50
69
80
87
104
136
157
173
196
214
221
233
244
247
247
240
221
189
140
94
53
6
-36
-57
-62
-62
-67
-69
-60
-46
-39
-27
-13
-9
-6
4
23
30
27
23
11
-34
-76
-69
-50
-60
-67
-48
-41
-55
-60
-46
-36
-36
-32
-16
-4
-9
-9
6
18
20
25
36
43
43
50
67
73
69
73
85
90
90
97
104
99
99
106
115
117
108
106
127
145
147
147
136
101
62
50
48
32
25
36
48
48
46
50
53
27
76
385
864
1162
1030
464
-80
-140
-13
-64
-113
-71
-69
-85
-64
-57
-60
-41
-46
-80
-80
-57
-55
-53
-23
-2
0
11
25
27
27
39
50
60
69
87
115
143
157
164
171
177
175
157
117
64
18
-11
-32
-53
-64
-67
-64
-60
-57
-41
-23
-20
-23
-11
6
11
11
20
32
32
36
48
55
50
27
2
-2
9
16
11
-6
-20
-11
2
6
4
0
9
13
-11
-36
-23
-13
-18
-4
16
20
18
27
36
36
39
48
60
62
57
71
85
83
73
76
83
76
69
78
90
90
101
136
159
152
140
138
138
127
110
106
108
104
104
115
122
120
113
92
175
536
1033
1280
1007
316
-150
-78
20
-76
-106
-62
-67
-69
-41
-27
-27
-18
0
13
16
18
32
27
-11
-41
-27
-20
-53
-76
-53
-20
-4
20
53
67
50
46
80
108
99
87
85
78
53
13
-27
-71
-108
-124
-124
-127
-129
-127
-117
-101
-83
-73
-71
-73
-69
-50
-39
-46
-50
-43
-32
-32
-34
-32
-48
-80
-90
-87
-99
-106
-99
-92
-90
-90
-87
-83
-78
-76
-71
-69
-76
-69
-55
-50
-55
-53
-46
-36
-39
-41
-25
-4
0
6
18
20
11
9
25
30
6
-4
11
16
0
-4
2
6
13
30
43
50
43
9
71
436
1014
1402
1245
503
-138
-120
36
-53
-87
-34
-39
-41
-9
-2
-25
-46
-43
-23
-4
0
2
16
30
27
25
34
43
48
64
87
110
127
152
189
217
235
256
281
293
284
270
251
208
140
83
43
9
-25
-50
-57
-62
-67
-55
-36
-32
-32
-23
-16
-36
-69
-67
-43
-43
-53
-39
-20
-23
-30
-18
-11
-13
-4
6
11
11
13
20
32
32
16
-16
-46
-48
-34
-18
-16
-18
-11
4
13
13
20
30
39
60
90
99
90
73
71
76
41
-13
-18
2
-6
-11
11
23
23
11
-16
83
494
1023
1273
973
247
-194
-90
-6
-106
-108
-71
-110
-147
-134
-110
-104
-106
-92
-67
-50
-41
-30
-16
-13
-4
20
46
53
57
76
85
80
83
83
80
99
127
147
164
166
152
140
120
71
16
-18
-55
-90
-104
-99
-101
-106
-97
-80
-69
-62
-48
-32
-27
-23
-6
4
4
-4
-6
0
4
0
9
20
16
11
20
30
32
30
34
41
39
41
50
46
13
-13
-4
9
6
6
18
23
23
30
41
50
41
30
39
55
57
53
48
48
39
36
46
43
16
2
13
18
16
25
36
39
41
34
25
173
589
1023
1134
765
138
-147
-36
-4
-85
-73
-41
-55
-50
-25
-13
-9
4
18
18
6
6
27
36
27
32
50
60
64
85
104
113
122
147
173
191
203
217
226
208
161
134
106
43
-9
-34
-67
-115
-161
-187
-184
-180
-177
-168
-173
-205
-212
-180
-164
-164
-152
-134
-127
-120
-106
-92
-87
-92
-85
-69
-64
-64
-57
-62
-80
-83
-67
-57
-62
-60
-50
-39
-34
-32
-27
-25
-30
-27
-18
-13
-20
-25
-18
-11
-11
-6
-4
-16
-23
-18
-11
-6
-13
-23
-20
-18
-27
-27
-20
-43
-76
-62
-23
-25
-53
-60
-48
-46
-60
-64
-62
-64
-62
-43
-25
-16
-11
-9
-23
23
321
795
1104
986
427
-90
-120
0
-62
-106
-55
-41
-46
-16
-4
-16
2
30
36
41
50
48
41
55
73
85
87
94
108
131
147
161
180
201
219
240
265
286
288
279
268
244
214
175
124
67
13
-27
-62
-94
-113
-117
-113
-115
-140
-150
-127
-115
-120
-106
-83
-73
-71
-64
-57
-53
-43
-32
-25
-30
-32
-25
-32
-41
-34
-25
-18
-9
0
11
16
9
9
25
39
41
41
50
62
62
60
69
76
71
76
90
90
85
94
101
92
90
99
110
122
129
138
136
99
53
46
48
25
9
2
-16
-30
-25
-9
6
4
-30
34
397
949
1296
1107
402
-161
-131
2
-87
-143
-110
-99
-101
-94
-85
-62
-39
-39
-46
-39
-23
-16
-6
6
13
20
39
67
83
99
122
145
164
191
221
249
268
284
298
298
281
247
203
154
90
18
-41
-76
-106
-120
-113
-108
-115
-113
-101
-97
-94
-99
-97
-87
-83
-76
-57
-48
-57
-57
-43
-39
-36
-20
-6
-11
-20
-11
4
9
4
0
-18
-48
-60
-39
-23
-30
-32
-16
-9
-4
6
23
25
23
25
36
43
43
53
71
87
110
129
124
106
101
104
97
83
71
67
64
60
57
67
73
71
36
60
362
917
1349
1301
663
-39
-159
-2
-48
-117
-69
-41
-46
-30
-20
-30
-20
-6
-2
6
16
11
18
46
53
41
53
76
80
87
117
152
173
187
214
233
219
187
177
182
180
166
143
97
34
-20
-57
-83
-106
-115
-113
-115
-122
-117
-99
-80
-76
-80
-73
-71
-99
-106
-80
-76
-85
-71
-53
-53
-57
-55
-57
-78
-90
-69
-50
-55
-57
-41
-27
-23
-18
-9
-2
4
16
27
30
25
16
13
23
27
30
39
48
43
46
57
62
57
67
76
73
80
97
110
106
87
80
87
76
64
67
62
48
48
60
67
62
62
64
60
34
11
154
600
1104
1287
940
235
-143
-30
20
-83
-83
-48
-78
-104
-87
-71
-62
-55
-46
-25
-4
2
2
16
39
55
55
69
85
76
67
83
104
115
131
159
184
203
219
240
249
231
205
180
140
87
34
-2
-25
-46
-57
-55
-67
-104
-120
-97
-94
-122
-127
-101
-92
-99
-87
-67
-62
-69
-62
-41
-34
-41
-34
-25
-20
-13
-4
0
2
-2
-6
-20
-32
-23
-9
-6
-2
11
27
27
18
18
34
50
53
48
48
48
41
48
71
78
69
67
76
85
85
87
90
83
85
104
117
131
150
154
131
94
69
71
69
36
25
46
50
43
36
27
18
-11
-69
11
416
982
1331
1144
404
-198
-177
-55
-157
-191
-131
-131
-147
-131
-138
-154
-147
-134
-131
-117
-104
-99
-90
-69
-57
-57
-53
-46
-48
-41
-25
-20
-16
13
48
73
90
106
117
127
129
120
90
39
-18
-60
-87
-120
-145
-159
-159
-147
-138
-127
-115
-108
-99
-76
-60
-64
-69
-57
-41
-32
-25
-11
-2
-4
-9
4
16
13
11
16
13
-16
-41
-25
-9
-20
-41
-50
-43
-32
-32
-23
-9
0
6
20
23
16
11
20
30
36
53
62
57
60
69
76
73
73
85
99
99
94
101
106
101
99
110
124
122
113
115
120
117
124
143
164
177
171
154
147
145
134
124
113
101
87
80
80
78
83
87
69
46
203
679
1208
1384
963
198
-175
-69
-34
-120
-127
-131
-164
-154
-136
-134
-127
-131
-168
-164
-108
-94
-117
-101
-64
-48
-41
-18
2
4
-13
-11
27
64
85
117
157
180
194
214
240
244
219
180
143
97
48
0
-48
-90
-106
-97
-85
-85
-92
-76
-50
-41
-36
-23
-16
-18
-4
18
27
25
25
30
25
18
23
27
2
-25
-9
11
4
-9
-13
-9
-25
-67
-71
-48
-60
-73
-41
-11
-11
-9
6
34
55
43
25
30
41
43
32
13
46
92
69
43
62
76
99
129
106
36
13
71
99
73
60
60
83
83
48
50
64
64
115
175
145
62
46
113
127
48
11
55
55
-16
-34
-2
13
-9
-2
314
908
1333
1259
589
-198
-342
-108
-124
-208
-157
-143
-201
-219
-173
-117
-117
-140
-104
-62
-90
-110
-41
18
-27
-32
36
46
43
55
64
143
203
189
189
221
291
351
305
258
312
346
284
173
147
152
50
-48
-50
-60
-83
-60
-48
-23
-9
-57
-50
23
18
-46
-46
11
60
41
-20
-27
13
16
0
-16
-36
-25
-18
-27
-18
-30
-30
-20
-39
-55
-80
-78
-55
-73
-55
-18
-71
-134
-104
-69
-85
-85
-64
-48
-55
-92
-90
-62
-55
-50
-64
-80
-62
-60
-80
-46
-57
-120
-69
-23
-27
0
-36
-57
25
27
-46
-78
-76
-69
-71
-106
-157
-136
-104
-134
-145
-97
-87
-171
-108
358
975
1352
1222
439
-325
-360
-173
-242
-247
-198
-251
-198
-136
-166
-145
-101
-90
-71
-60
-69
-13
25
-30
-13
27
4
2
20
73
99
69
145
235
217
205
233
270
300
335
358
344
268
159
145
147
71
6
-23
-39
-34
-16
-34
-48
-25
-13
2
25
23
6
16
62
87
48
30
64
16
-43
9
9
-32
6
20
-11
-4
20
25
30
46
62
43
36
64
43
27
76
90
62
69
104
99
62
62
80
69
48
62
87
60
41
34
2
41
57
-32
-25
69
50
4
50
76
46
30
2
-16
-11
-30
-27
-30
-53
-27
-18
-73
-60
256
878
1449
1553
933
-16
-402
-208
-147
-286
-265
-194
-233
-258
-208
-143
-164
-212
-159
-85
-90
-85
-50
-43
-46
-23
2
-9
32
94
62
67
168
201
177
208
261
293
314
328
291
247
256
221
138
71
-2
-71
-78
-99
-157
-147
-117
-150
-191
-184
-166
-159
-127
-110
-115
-110
-101
-80
-73
-60
-41
-50
-25
-9
-64
-99
-41
-43
-136
-110
-23
-32
-55
-30
-2
-11
-32
-9
16
18
18
18
30
55
55
41
73
87
53
71
97
69
78
115
117
99
67
50
99
131
152
177
145
104
106
97
62
73
97
76
73
101
78
36
87
115
41
180
700
1275
1536
1162
244
-309
-171
-57
-189
-208
-124
-147
-182
-134
-129
-184
-191
-136
-99
-120
-101
-39
-50
-94
-41
18
6
11
46
50
80
138
152
171
238
265
231
242
316
348
302
275
291
224
110
97
73
-30
-32
6
-43
-34
11
-27
-27
30
4
-23
11
6
13
64
78
60
43
46
23
9
39
48
-20
-106
-85
-4
-32
-117
-78
4
-9
-73
-104
-76
-50
-67
-60
4
13
-64
-83
-16
9
-39
-57
2
16
-32
-2
78
71
-11
-53
-16
36
30
2
32
94
76
0
18
60
25
-32
-23
-6
-55
-39
18
-18
-27
-18
-48
-25
2
244
905
1495
1479
781
-64
-314
-136
-117
-184
-131
-101
-131
-120
-69
-69
-115
-101
-50
-83
-131
-131
-152
-159
-124
-106
-106
-94
-76
-57
-13
48
101
101
99
175
219
212
279
342
314
261
235
210
131
41
6
-46
-115
-115
-87
-104
-150
-131
-78
-73
-53
-27
-60
-41
23
6
-27
-11
4
4
13
34
41
46
50
16
4
39
43
46
94
90
16
9
73
69
-2
23
106
64
27
92
62
-11
32
23
-53
4
50
30
78
80
41
71
71
48
50
30
9
20
25
20
50
104
87
-4
-4
238
767
1363
1608
1125
180
-277
-99
-25
-124
-94
-64
-87
-57
-27
-48
-71
-85
-110
-101
-53
-41
-36
-25
-43
-30
9
23
46
41
13
62
108
92
143
226
214
189
221
217
187
159
120
90
4
-99
-131
-154
-205
-224
-203
-212
-231
-224
-219
-231
-275
-263
-205
-224
-235
-194
-201
-240
-221
-189
-196
-228
-210
-152
-154
-180
-164
-143
-147
-136
-94
-99
-129
-92
-41
-50
-60
-43
-36
-32
-16
2
-23
-27
34
53
64
106
80
62
92
80
76
87
46
36
55
34
55
85
60
16
13
20
18
249
806
1308
1405
873
36
-219
-20
-64
-152
-55
-32
-69
-25
-13
-46
-23
-2
-9
-18
-64
-76
-16
-4
-20
20
62
62
62
57
71
124
140
147
187
194
221
270
242
242
300
286
210
177
161
85
25
4
-34
-39
-36
-90
-117
-101
-90
-101
-99
-85
-97
-80
-62
-97
-127
-104
-92
-97
-83
-85
-78
-69
-69
-64
-85
-53
-16
-50
-46
-13
-30
-34
-36
-53
-36
-13
-11
13
9
-48
-32
4
-53
-55
-27
-55
-57
-41
-18
-2
-6
-23
-46
-43
-30
-11
-2
-32
-48
-6
41
32
-4
11
281
892
1453
1499
843
-55
-309
-57
-50
-173
-104
-46
-62
-67
-104
-108
-69
-62
-34
0
-27
-25
41
41
9
48
87
85
101
152
171
166
180
221
268
281
309
348
367
362
365
365
300
219
131
60
62
23
-73
-80
-48
-104
-131
-97
-83
-71
-92
-120
-76
-32
-64
-73
-39
-39
-64
-87
-113
-104
-67
-85
-140
-120
-78
-94
-97
-73
-69
-64
-34
-32
-97
-122
-69
-67
-90
-80
-57
-36
-27
6
16
-18
34
97
41
-13
4
20
0
0
11
-18
-25
9
16
6
32
27
39
427
1155
1634
1426
584
-157
-184
20
-60
-166
-90
-36
-94
-120
-90
-78
-57
-57
-57
-48
-92
-64
13
11
36
57
11
36
99
101
134
187
187
228
272
286
305
286
288
325
321
270
219
171
120
71
2
-60
-57
-39
-73
-131
-154
-124
-110
-131
-117
-108
-122
-87
-87
-110
-53
-36
-87
-83
-60
-48
-25
-36
-73
-87
-71
-36
-43
-60
-23
-18
-83
-78
-50
-85
-104
-94
-108
-134
-147
-161
-184
-175
-161
-184
-180
-147
-147
-168
-138
-73
-94
-127
-104
-136
-134
-92
-168
-217
-145
-117
-131
-113
-101
-120
-134
-90
189
811
1347
1333
716
-90
-348
-138
-136
-263
-189
-99
-145
-168
-108
-85
-101
-76
-36
-39
-20
4
-9
16
41
39
80
97
94
138
150
113
161
221
184
198
277
309
291
254
265
298
277
196
117
124
97
-36
-71
-30
-62
-83
-50
-27
-18
-23
-43
-60
-50
-20
-20
-39
-18
6
-4
-13
-23
-25
-18
-20
-6
-2
-4
9
16
16
18
4
2
13
-16
-13
20
-13
-39
6
25
-18
9
50
2
25
67
13
6
41
36
32
53
48
11
32
110
122
83
94
120
71
18
55
76
50
67
90
64
53
87
80
30
235
862
1465
1571
1035
113
-353
-203
-140
-249
-212
-150
-201
-196
-104
-94
-140
-97
-48
-67
-53
-4
34
41
20
41
55
71
117
115
113
166
205
242
275
286
318
307
300
369
376
346
321
251
198
150
87
41
2
-18
-48
-57
-20
-27
-69
-27
6
-18
-23
-16
-4
20
18
18
36
2
-6
23
-20
-69
-50
-34
-76
-124
-147
-166
-159
-147
-145
-138
-122
-73
-60
-117
-113
-62
-57
-50
-41
-60
-55
-11
6
-23
-2
67
73
41
30
34
80
113
50
-23
11
57
27
20
16
-2
43
32
6
295
933
1527
1629
1005
60
-281
-71
-48
-140
-92
-53
-48
-43
-55
-32
4
9
20
13
6
9
-20
-2
60
55
39
50
71
92
92
140
210
198
177
196
214
240
228
238
254
180
120
90
18
-36
-78
-145
-184
-166
-159
-166
-140
-166
-189
-127
-97
-134
-129
-85
-80
-90
-76
-55
-36
-30
-46
-67
-92
-87
-50
-57
-87
-90
-94
-101
-87
-99
-145
-124
-108
-152
-115
-64
-97
-97
-90
-117
-117
-117
-110
-92
-94
-39
11
-32
-43
-23
-30
-11
-11
-55
-53
-27
-85
-138
-90
-57
-110
-138
-115
-67
247
910
1462
1407
670
-173
-342
-138
-198
-281
-224
-219
-240
-191
-143
-161
-164
-122
-110
-108
-99
-92
-50
-16
-16
4
27
23
53
108
120
104
138
205
235
277
316
314
328
330
291
254
205
145
120
62
-57
-104
-57
-64
-115
-108
-55
-50
-115
-87
-4
-41
-67
-9
13
-4
4
20
-6
-30
-46
-60
-67
-113
-127
-83
-78
-94
-85
-67
-92
-104
-64
-53
-34
-25
-78
-62
23
6
-41
-6
32
27
-4
6
50
41
32
64
97
131
124
76
99
117
53
53
99
78
43
25
18
48
78
76
13
43
464
1125
1592
1564
825
-87
-247
4
-46
-143
-73
-25
-27
-18
-13
-34
-18
34
41
43
73
76
53
39
57
104
106
90
110
145
150
117
120
180
217
198
191
217
219
194
182
194
140
46
20
-25
-113
-134
-143
-134
-131
-171
-164
-134
-136
-140
-154
-129
-94
-120
-150
-154
-145
-110
-90
-108
-115
-120
-159
-157
-117
-110
-127
-136
-101
-73
-97
-94
-85
-78
-57
-62
-57
-13
-2
-30
-53
-30
6
-34
-73
-27
0
-11
-4
13
11
4
32
62
64
57
18
-2
57
57
-11
-6
2
-18
25
36
-13
23
67
-13
-36
177
677
1291
1594
1208
325
-233
-177
-92
-189
-196
-113
-104
-106
-71
-76
-78
-34
-27
-41
-9
2
6
50
41
20
71
92
76
122
159
131
140
175
203
240
249
256
300
321
258
208
249
254
171
76
36
27
-30
-94
-83
-64
-64
-62
-110
-140
-83
-64
-83
-80
-101
-80
-39
-43
-43
-36
-53
-64
-55
-76
-147
-157
-99
-127
-189
-147
-76
-85
-157
-168
-99
-50
-39
-97
-157
-76
-20
-62
-30
23
-62
-120
-32
6
-9
20
13
-20
9
13
-50
-94
-106
-76
-34
-6
25
11
2
50
53
32
69
16
-73
-16
25
-16
2
46
73
69
-13
-46
73
399
952
1395
1264
508
-196
-272
-92
-154
-288
-221
-138
-150
-175
-217
-201
-127
-127
-154
-136
-106
-80
-46
-71
-122
-71
-27
-39
-4
25
27
43
85
143
131
99
175
208
150
166
221
228
189
104
60
57
-9
-43
-25
-55
-83
-53
-36
-48
-67
-73
-50
-57
-90
-71
-36
-50
-69
-53
-34
-60
-83
-43
-13
-36
-57
-41
-34
-64
-97
-85
-41
-25
-67
-115
-113
-87
-64
-60
-69
-53
-30
-11
18
27
6
2
11
6
-9
9
43
46
69
104
78
64
115
99
57
106
147
110
78
87
90
85
85
67
64
94
90
73
85
101
288
829
1398
1472
875
80
-145
32
4
-69
9
39
13
20
2
-20
6
41
50
55
62
76
92
104
92
67
69
69
41
53
92
99
113
143
166
205
242
256
275
284
275
272
254
171
71
32
-27
-157
-231
-217
-214
-231
-217
-196
-189
-191
-184
-161
-140
-136
-115
-94
-94
-94
-80
-71
-71
-80
-76
-48
-30
-39
-41
-20
-11
-36
-41
2
13
-11
-9
13
20
16
18
23
30
34
36
55
57
23
34
97
108
85
87
83
64
64
69
67
60
57
71
78
32
-6
23
16
-2
265
836
1298
1271
656
-53
-182
-11
-48
-110
-69
-48
-41
-25
-32
-20
6
16
20
39
55
60
62
73
97
108
113
117
131
140
143
147
157
171
189
217
249
258
265
279
261
231
212
180
113
34
-13
-41
-76
-99
-99
-104
-110
-108
-101
-99
-92
-76
-71
-62
-43
-43
-55
-55
-71
-106
-131
-124
-110
-106
-101
-90
-80
-76
-73
-67
-50
-41
-43
-39
-32
-32
-23
-9
-6
-11
-4
2
6
9
9
23
39
43
64
92
73
43
57
73
60
39
34
39
41
41
36
36
55
62
32
-9
23
275
732
1097
1049
510
-80
-208
-76
-94
-145
-99
-71
-78
-50
-32
-48
-53
-30
-16
-13
-4
6
6
6
20
43
53
48
57
71
60
46
67
78
76
92
117
134
145
157
147
117
92
69
32
-11
-39
-73
-117
-136
-129
-127
-134
-134
-136
-150
-145
-131
-136
-145
-136
-122
-131
-154
-161
-161
-157
-136
-110
-104
-110
-106
-85
-94
-106
-73
-41
-46
-57
-50
-53
-60
-48
-34
-27
-18
-13
-2
13
16
25
62
83
78
99
108
69
39
55
50
-2
-18
13
34
34
32
39
53
55
27
53
332
852
1243
1162
559
-60
-143
-6
-48
-85
-34
-6
-4
11
13
9
25
43
34
27
34
48
67
71
76
92
110
129
145
159
177
187
196
221
254
279
298
316
314
300
298
295
279
235
161
113
90
48
13
0
-11
-18
-11
2
9
2
-2
9
25
13
-16
-18
-6
-16
-32
-43
-36
-30
-41
-53
-55
-60
-60
-50
-53
-92
-129
-117
-94
-99
-99
-78
-67
-78
-94
-99
-83
-71
-69
-41
-4
6
11
11
9
13
9
-16
-34
-36
-27
-16
-11
-6
11
27
6
-30
115
589
1134
1338
952
198
-184
-55
-2
-87
-71
-30
-27
-20
-20
-13
13
27
25
30
30
2
-20
-13
11
25
25
39
64
87
104
127
150
168
187
221
251
254
244
270
291
261
212
173
129
78
36
9
-9
-25
-36
-36
-36
-43
-39
-30
-30
-23
-6
-4
-9
-11
-11
-6
-2
-4
-6
0
6
-2
-9
0
9
9
11
13
11
18
32
30
9
-13
-25
-20
-25
-39
-32
-23
-36
-43
-20
-4
2
16
27
41
43
27
25
18
-25
-67
-57
-39
-53
-48
-39
-57
-78
-83
-92
41
478
993
1190
843
136
-247
-129
-62
-157
-150
-97
-101
-99
-69
-53
-43
-34
-20
0
9
11
30
48
46
50
80
101
101
106
127
152
164
182
214
238
228
224
244
254
242
224
208
164
85
30
4
-34
-67
-64
-64
-67
-55
-50
-62
-60
-34
-20
-27
-50
-80
-92
-106
-122
-122
-124
-124
-110
-110
-129
-140
-143
-136
-120
-117
-124
-115
-104
-106
-113
-124
-131
-138
-145
-147
-150
-147
-143
-140
-145
-152
-150
-134
-120
-120
-127
-127
-120
-110
-97
-76
-76
-87
-50
-2
-6
-34
-34
-11
-2
-18
-32
-23
-13
-13
-4
16
27
25
4
4
184
619
1051
1169
790
140
-150
-62
-73
-138
-94
-60
-76
-71
-48
-39
-53
-71
-67
-46
-30
-23
-4
18
25
32
48
64
80
106
129
140
150
173
201
228
249
258
272
281
268
251
258
247
191
134
97
62
30
20
25
11
-13
-11
6
9
6
13
20
23
30
34
41
34
18
20
39
41
30
34
41
27
-4
-30
-34
-48
-76
-87
-85
-78
-62
-48
-69
-113
-120
-94
-108
-154
-157
-129
-127
-122
-99
-83
-85
-85
-62
-41
-34
-23
2
27
34
27
25
23
-9
-55
-69
-76
-115
-131
-106
-92
-85
-76
-90
-67
212
762
1218
1185
552
-129
-210
-39
-90
-136
-73
-60
-78
-50
-16
-6
0
11
16
27
23
18
39
41
13
32
71
85
94
122
150
164
182
221
258
272
277
293
307
284
249
244
226
168
108
62
16
-27
-50
-60
-80
-87
-67
-57
-64
-67
-48
-23
-11
-16
-20
-9
-6
-13
-13
-16
-32
-46
-46
-41
-34
-41
-53
-48
-32
-27
-27
-32
-30
-16
-2
-2
-11
-13
-4
-6
-27
-46
-41
-23
-20
-23
4
34
57
67
55
43
57
69
55
32
27
39
48
48
53
64
67
16
-46
99
563
1083
1282
922
187
-194
-78
-41
-150
-124
-67
-85
-76
-43
-41
-32
-9
-4
0
25
36
39
53
73
87
97
101
113
134
152
175
205
221
233
258
288
300
302
300
281
240
198
164
115
57
11
-9
-30
-53
-62
-57
-50
-41
-41
-36
-23
-18
-11
0
-11
-57
-83
-78
-90
-108
-101
-85
-90
-101
-99
-85
-87
-99
-90
-85
-113
-138
-124
-108
-115
-110
-97
-85
-78
-64
-55
-55
-48
-34
-27
-20
-13
-9
0
13
39
67
83
71
50
55
76
69
32
-4
-23
-25
-11
4
6
2
2
-9
53
376
855
1141
1003
448
-76
-122
9
-41
-85
-25
-9
-25
-13
2
6
16
32
43
48
53
57
60
71
83
85
99
120
124
136
161
175
177
194
226
233
208
187
187
184
177
180
159
108
57
25
4
-18
-34
-32
-34
-41
-41
-41
-43
-50
-67
-78
-80
-87
-94
-90
-87
-90
-85
-71
-73
-83
-83
-71
-60
-57
-55
-46
-43
-43
-30
-20
-27
-25
-11
0
2
4
11
2
-25
-27
-4
6
4
6
18
25
23
34
53
64
83
104
110
108
104
101
104
83
30
-4
11
27
20
25
48
55
36
18
131
506
968
1171
880
219
-171
-85
-11
-94
-92
-41
-50
-83
-99
-83
-57
-50
-48
-34
-11
0
4
20
39
53
64
83
101
113
127
152
175
187
201
231
247
244
251
277
286
268
238
194
145
97
60
36
6
-20
-20
-9
-11
-18
-16
-6
-2
4
18
18
-16
-48
-46
-48
-64
-78
-97
-110
-104
-97
-94
-97
-110
-120
-106
-97
-106
-99
-83
-78
-71
-55
-46
-43
-39
-34
-32
-32
-20
4
27
41
53
55
48
41
32
11
-16
-25
-18
-13
-11
0
6
16
13
-23
78
515
1079
1338
1021
265
-196
-90
0
-90
-80
-30
-46
-36
-6
-11
-4
23
23
13
34
41
32
41
55
60
55
41
55
67
48
50
99
136
159
184
203
221
244
265
270
247
208
171
131
80
34
-4
-34
-50
-53
-53
-53
-60
-71
-67
-46
-36
-30
-16
-13
-25
-25
-11
0
-4
-16
-11
-2
-4
-2
2
-16
-34
-34
-43
-53
-50
-50
-48
-43
-48
-46
-27
-20
-27
-16
16
25
2
-18
-9
-13
-69
-104
-110
-154
-189
-171
-150
-150
-134
-129
-157
-90
272
825
1185
1005
298
-254
-205
-73
-152
-166
-108
-117
-129
-101
-92
-97
-92
-71
-48
-41
-36
-20
2
16
32
55
69
76
94
120
145
166
189
212
235
258
279
300
309
293
272
256
221
168
113
48
2
-11
-13
-16
-16
-20
-13
2
9
4
-2
-18
-27
-25
-20
-13
-11
-18
-18
-11
-9
-13
-16
-32
-64
-73
-55
-50
-57
-53
-50
-55
-64
-67
-76
-90
-94
-85
-76
-71
-67
-41
-9
-2
-4
-2
-4
-16
-18
-20
-27
-32
-25
-11
-9
-9
2
16
2
-18
134
568
1012
1111
728
110
-175
-76
-34
-85
-69
-48
-53
-32
-11
-20
-32
-34
-30
-18
-6
11
25
32
43
67
76
83
101
110
115
140
173
194
203
210
221
231
212
184
189
191
147
97
69
46
11
-13
-23
-25
-27
-23
-20
-13
-2
9
16
25
34
36
36
36
46
57
48
2
-36
-50
-55
-57
-57
-55
-50
-43
-32
-25
-27
-27
-18
-6
-2
-2
-23
-46
-39
-23
-16
-18
-30
-43
-46
-43
-39
-32
-23
-4
18
32
20
-11
-27
-25
-30
-46
-50
-41
-30
-32
-64
-87
-67
-48
-83
-48
270
783
1120
979
365
-166
-164
-32
-97
-127
-80
-80
-78
-50
-39
-30
-11
-16
-25
-9
9
20
27
39
53
67
78
94
108
117
136
166
194
205
198
203
228
249
256
261
256
235
208
175
129
80
39
16
6
-6
-16
-13
-13
-11
6
18
9
2
13
30
32
23
25
36
39
30
30
36
34
23
16
11
-16
-53
-48
-34
-39
-41
-32
-25
-23
-25
-25
-27
-27
-13
4
0
-13
-13
-9
-13
-16
-9
4
16
13
4
2
-9
-39
-57
-60
-62
-57
-43
-34
-36
-36
-25
-34
-53
138
644
1144
1222
714
-11
-240
-78
-83
-154
-104
-80
-104
-78
-53
-57
-48
-20
-11
-6
11
25
13
-11
-20
0
4
-20
-18
20
41
50
83
106
106
127
171
187
180
184
201
203
168
113
71
39
4
-25
-39
-46
-46
-39
-41
-62
-76
-60
-34
-25
-25
-13
-4
-4
0
16
18
2
-16
-18
-11
-9
-9
-9
-6
-4
-6
-11
0
11
2
-2
13
23
16
20
32
25
9
6
4
-13
-23
-13
-2
13
36
53
50
23
0
4
-4
-57
-87
-76
-71
-71
-53
-36
-34
-36
-55
-32
217
714
1130
1107
550
-78
-196
-64
-127
-194
-129
-99
-113
-97
-69
-57
-55
-53
-55
-43
-20
-11
-2
16
27
41
64
78
85
99
124
140
152
177
210
228
240
261
277
272
258
244
219
177
136
97
62
39
23
6
-11
-20
-16
0
16
20
16
16
20
11
11
25
20
-23
-53
-39
-23
-39
-43
-27
-23
-36
-41
-50
-62
-64
-53
-41
-46
-50
-55
-80
-104
-94
-87
-85
-71
-69
-71
-60
-53
-55
-46
-39
-50
-60
-43
-27
-50
-73
-41
-4
-9
-18
-9
-6
-16
-25
-30
-36
-34
-27
-20
-18
-25
-20
-23
-39
106
524
954
1070
723
113
-187
-90
-48
-110
-94
-73
-92
-76
-50
-50
-48
-34
-32
-57
-99
-120
-110
-101
-90
-69
-57
-55
-55
-43
-18
2
20
50
76
90
108
136
154
164
168
168
159
131
94
69
32
-11
-25
-25
-39
-41
-27
-16
-16
-13
0
18
20
16
13
16
16
20
25
20
6
6
9
-4
-25
-30
-23
-18
-13
-6
-4
-11
-6
9
25
20
6
4
20
39
27
4
-2
-18
-48
-50
-36
-41
-46
-34
-16
-6
-11
-6
6
9
11
27
48
71
87
94
94
83
87
99
80
53
64
83
76
73
87
90
92
90
67
168
577
1093
1310
979
258
-143
-23
41
-60
-41
16
-2
-4
23
32
36
41
48
64
78
78
80
97
113
122
127
140
143
131
140
173
191
191
205
235
261
256
242
244
235
166
104
92
53
-18
-57
-78
-106
-122
-122
-110
-104
-106
-92
-67
-67
-83
-78
-64
-73
-83
-73
-67
-64
-71
-83
-87
-87
-87
-80
-73
-69
-60
-48
-43
-46
-36
-25
-23
-23
-13
-6
-4
4
11
13
20
27
32
36
39
34
30
18
11
34
50
39
27
27
39
48
27
2
4
16
20
23
30
27
0
-32
-43
83
501
1021
1252
926
198
-214
-99
-30
-120
-104
-53
-67
-62
-39
-41
-48
-39
-16
0
2
9
32
53
57
60
67
87
104
115
140
161
173
194
224
238
235
244
256
258
249
240
226
187
127
64
2
-57
-90
-99
-108
-113
-101
-85
-71
-69
-78
-76
-67
-71
-71
-60
-60
-64
-64
-55
-50
-55
-62
-57
-53
-76
-106
-97
-83
-90
-85
-64
-57
-67
-71
-57
-41
-41
-34
-20
-20
-20
-6
9
13
13
20
27
32
36
53
76
94
104
113
110
97
87
83
71
60
62
71
73
60
32
18
23
-16
-46
175
663
1065
1074
593
-30
-210
-64
-62
-124
-87
-64
-78
-71
-55
-43
-34
-30
-27
-16
-4
2
6
13
25
32
34
36
43
48
39
36
50
43
23
39
67
62
62
83
85
60
20
-18
-53
-90
-124
-145
-159
-168
-166
-161
-161
-168
-177
-168
-150
-145
-136
-129
-147
-166
-159
-134
-127
-134
-131
-115
-101
-99
-87
-78
-80
-76
-57
-46
-36
-25
-18
-18
-16
-6
6
20
18
11
23
41
46
46
53
48
32
34
46
46
48
57
67
71
67
71
87
78
55
71
106
99
78
85
97
83
69
69
73
67
71
80
85
85
87
78
85
272
695
1097
1137
658
27
-152
-9
-11
-83
-50
-23
-36
-18
4
4
6
27
43
48
50
50
60
78
92
101
106
101
104
127
147
157
168
180
198
217
231
251
265
256
244
242
228
187
143
99
53
9
-13
-23
-60
-117
-136
-110
-101
-110
-108
-97
-106
-136
-138
-113
-113
-122
-115
-113
-120
-117
-127
-152
-157
-138
-120
-101
-97
-101
-90
-71
-64
-60
-50
-43
-39
-32
-16
-6
-11
-6
9
18
18
27
43
43
34
41
48
34
25
32
46
57
71
92
110
115
106
101
104
101
80
60
57
71
78
78
80
85
87
67
64
279
795
1278
1324
744
-25
-208
-16
-62
-147
-78
-50
-78
-71
-69
-76
-60
-43
-32
-20
-16
-4
23
34
39
53
69
73
73
83
104
122
134
152
182
208
224
238
247
249
242
221
191
150
94
48
13
-25
-60
-76
-85
-101
-113
-104
-94
-94
-92
-76
-64
-67
-55
-39
-41
-43
-34
-30
-32
-34
-36
-30
-30
-36
-48
-64
-87
-101
-85
-67
-73
-97
-106
-90
-73
-73
-64
-50
-48
-39
-23
-18
-23
-13
0
2
2
11
27
43
64
85
99
94
80
69
62
41
25
32
41
34
32
48
60
57
43
32
180
612
1095
1259
882
152
-226
-101
-36
-120
-104
-55
-71
-69
-41
-27
-13
-9
-13
-4
2
-6
0
27
36
39
46
48
43
32
39
67
69
48
64
106
115
117
143
166
166
147
117
78
36
-2
-30
-64
-104
-131
-138
-138
-147
-150
-143
-136
-124
-101
-83
-73
-71
-62
-48
-41
-36
-27
-27
-32
-32
-18
-9
-9
-11
-9
0
11
18
23
23
25
32
43
57
53
34
32
46
50
53
60
55
48
57
71
67
46
34
50
53
43
55
71
76
94
127
140
127
104
101
110
87
32
9
25
27
16
18
20
18
9
-4
122
510
938
1097
811
203
-154
-62
13
-62
-60
-9
-20
-32
-6
13
16
13
20
36
48
43
36
43
48
55
62
60
53
57
78
106
129
136
147
173
196
210
231
242
217
177
147
117
62
2
-32
-57
-80
-97
-99
-99
-104
-108
-99
-83
-76
-71
-64
-83
-124
-131
-108
-101
-106
-99
-87
-99
-129
-134
-113
-113
-122
-108
-87
-80
-80
-71
-60
-53
-50
-36
-25
-30
-30
-13
-6
-9
-9
0
6
6
0
2
2
-6
-2
16
18
11
11
13
13
27
46
46
23
2
-6
2
9
-4
-27
-39
-43
-46
-41
-30
-23
-30
-43
-57
64
485
1005
1215
862
129
-249
-104
-41
-143
-120
-73
-122
-147
-110
-90
-87
-69
-48
-30
-16
-16
-16
-4
0
18
36
39
50
80
106
115
134
147
157
187
224
244
249
254
256
251
231
180
117
55
-2
-48
-78
-108
-136
-147
-140
-129
-117
-106
-97
-85
-71
-67
-57
-36
-27
-36
-41
-39
-53
-62
-48
-34
-36
-39
-23
-4
-9
-23
-16
2
9
9
18
20
2
-20
-20
-9
-11
-18
-6
9
13
18
25
36
48
62
83
99
80
57
62
78
71
55
46
39
36
53
64
64
69
73
50
46
263
774
1266
1335
783
27
-182
-9
-27
-106
-57
-30
-43
-23
-11
-30
-32
-6
2
-30
-62
-46
-23
-18
-6
20
32
36
50
57
60
78
108
129
147
168
194
214
217
205
198
189
140
60
-4
-48
-92
-131
-157
-177
-203
-217
-221
-221
-214
-201
-194
-187
-180
-171
-157
-147
-154
-161
-150
-143
-161
-180
-175
-173
-182
-177
-159
-152
-147
-136
-124
-120
-115
-110
-110
-117
-110
-87
-69
-64
-67
-57
-39
-27
-25
-11
4
9
25
62
87
85
78
71
76
78
62
60
67
57
53
69
80
83
87
69
11
78
457
959
1181
894
231
-175
-94
-13
-90
-92
-50
-57
-48
-11
-4
-18
-6
9
2
-2
11
20
27
41
62
80
87
99
117
122
122
143
164
168
182
208
224
233
231
221
219
210
173
124
83
46
18
6
6
2
-6
-16
-18
-18
-27
-34
-25
-20
-23
-11
2
-2
-20
-20
-11
-16
-16
-6
-2
-13
-16
0
6
2
6
18
11
-20
-46
-27
-20
-62
-83
-64
-78
-106
-94
-73
-83
-92
-78
-62
-78
-120
-127
-101
-94
-92
-76
-60
-55
-50
-34
-13
-4
6
36
69
69
57
64
76
64
43
43
50
50
50
62
71
76
85
73
90
332
790
1144
1113
617
20
-113
25
2
-53
-9
-2
-23
6
39
34
32
48
64
71
80
94
104
78
46
48
55
39
39
55
64
80
101
117
131
138
154
177
196
196
196
198
182
136
92
69
39
0
-25
-36
-50
-71
-83
-78
-69
-67
-57
-48
-50
-53
-36
-23
-25
-23
-11
-13
-25
-27
-25
-25
-23
-23
-18
-6
0
2
2
0
0
11
27
32
30
34
43
46
43
48
57
55
50
46
34
27
34
39
43
46
32
27
36
4
-41
-23
23
36
41
57
62
53
57
69
57
34
32
46
48
46
55
64
67
55
32
161
607
1144
1356
1000
258
-152
-46
6
-92
-76
-20
-27
-25
-9
-4
9
23
30
39
50
57
67
76
76
62
36
36
55
60
69
92
115
127
124
138
171
182
175
177
173
161
147
120
55
-30
-85
-115
-157
-191
-205
-214
-214
-212
-203
-189
-175
-164
-150
-140
-138
-138
-129
-120
-120
-124
-122
-122
-129
-131
-127
-134
-145
-147
-138
-134
-134
-124
-108
-99
-101
-92
-73
-62
-57
-46
-32
-32
-27
-9
6
9
6
18
39
39
32
46
62
46
23
32
50
46
39
55
83
106
115
108
97
101
110
106
87
80
80
92
94
64
39
53
55
23
115
499
1012
1287
1053
383
-94
-46
60
-18
-41
0
-4
-2
23
27
30
34
23
27
53
62
53
57
73
83
90
101
113
124
131
150
177
196
201
217
251
261
247
244
244
208
154
113
67
16
-23
-55
-71
-78
-85
-87
-80
-76
-73
-64
-43
-36
-39
-27
-11
-2
2
11
9
-27
-64
-48
-25
-34
-41
-18
-11
-25
-20
-13
-27
-34
-18
-2
11
9
4
18
18
-20
-36
-9
-2
-13
2
23
27
25
34
48
48
43
53
62
62
64
85
94
87
83
83
62
30
41
67
76
87
110
127
127
113
106
110
101
78
78
90
90
87
99
108
110
94
83
235
640
1065
1201
864
214
-127
-23
30
-50
-50
-18
-39
-64
-73
-67
-53
-43
-34
-13
-2
-6
-2
6
-6
-13
11
36
43
48
57
78
104
115
136
166
189
201
212
231
247
235
187
129
80
39
9
-13
-34
-53
-60
-60
-60
-55
-46
-27
-16
-13
-6
9
16
20
23
23
27
39
41
41
43
48
55
60
53
36
23
32
43
46
43
41
36
46
60
62
55
55
60
43
18
13
20
16
20
32
39
39
36
48
57
55
53
60
64
69
97
122
110
85
67
48
25
6
4
13
11
-2
9
34
43
36
4
11
265
799
1268
1280
672
-67
-214
-34
-76
-150
-94
-76
-97
-76
-48
-53
-73
-76
-57
-50
-73
-97
-80
-67
-85
-90
-67
-57
-67
-57
-23
4
18
43
71
78
62
64
90
97
85
73
62
30
-20
-69
-106
-140
-175
-187
-177
-184
-208
-217
-214
-198
-189
-187
-177
-171
-164
-147
-138
-140
-145
-140
-129
-129
-136
-131
-124
-124
-117
-104
-99
-94
-85
-73
-60
-53
-55
-53
-46
-39
-30
-23
-16
-4
2
4
6
9
25
39
36
32
50
73
92
113
117
104
99
104
106
85
32
-6
6
20
13
16
20
18
2
-2
194
672
1118
1164
697
34
-208
-73
-60
-134
-113
-85
-94
-85
-76
-67
-50
-36
-30
-16
-9
-9
4
30
41
43
50
60
62
64
78
85
90
97
104
124
147
152
147
159
171
154
124
92
50
4
-25
-41
-57
-76
-83
-78
-71
-67
-55
-41
-39
-34
-16
-4
-9
-13
-6
-11
-41
-64
-53
-46
-78
-94
-67
-50
-55
-46
-32
-32
-32
-16
0
2
-2
2
18
25
25
30
32
13
-16
-20
-4
-2
-6
-2
4
4
6
18
23
18
25
43
57
69
83
97
101
90
80
83
71
50
36
41
50
46
34
41
48
41
20
43
272
707
1051
1026
547
-39
-198
-67
-87
-164
-129
-117
-191
-238
-219
-203
-205
-194
-175
-164
-157
-147
-124
-104
-94
-80
-53
-32
-18
0
18
36
53
64
64
64
71
85
99
106
108
108
94
62
25
-11
-36
-55
-73
-76
-62
-57
-62
-55
-41
-34
-27
-11
4
6
4
11
20
23
27
30
18
4
11
23
25
20
20
32
46
50
53
46
20
9
27
41
41
41
39
43
62
71
76
78
55
18
13
36
41
34
41
53
46
39
53
64
57
46
60
78
78
80
87
97
104
122
152
166
152
138
143
147
131
106
101
106
108
117
129
127
120
108
92
175
529
1028
1294
1042
365
-92
-20
67
-27
-34
20
9
-9
-16
-46
-53
-30
-20
-30
-53
-73
-62
-39
-32
-20
-2
4
16
39
64
85
92
87
85
94
87
76
87
97
92
101
104
71
18
-23
-57
-104
-138
-143
-147
-164
-173
-159
-143
-136
-134
-127
-113
-101
-101
-97
-92
-94
-99
-99
-106
-113
-110
-108
-110
-115
-113
-97
-85
-94
-85
-62
-57
-71
-90
-97
-87
-85
-78
-46
-32
-41
-36
-20
-16
-6
4
4
9
23
34
30
9
6
27
41
50
76
99
99
71
32
34
43
27
16
27
36
30
32
46
46
46
46
23
152
649
1296
1613
1222
314
-187
-48
20
-104
-83
-23
-50
-50
-27
-34
-25
-4
-2
11
27
25
36
55
55
39
30
43
64
83
115
145
166
191
226
251
263
272
281
286
277
254
226
177
104
32
-18
-57
-90
-110
-122
-122
-113
-106
-97
-85
-73
-62
-53
-67
-90
-78
-60
-60
-53
-36
-34
-39
-34
-23
-20
-27
-30
-34
-43
-39
-20
-4
0
-2
-9
0
11
9
13
30
11
-27
-27
-4
0
-13
-32
-30
-6
13
39
67
71
60
60
67
62
43
30
16
4
13
27
34
43
50
32
4
184
714
1319
1548
1083
205
-189
-34
-6
-104
-67
-27
-50
-39
-11
-30
-76
-78
-53
-46
-46
-18
-6
-27
-25
2
20
27
43
69
101
122
138
171
205
226
244
263
261
238
226
224
182
101
30
-11
-48
-90
-113
-120
-129
-138
-124
-106
-106
-108
-94
-76
-67
-60
-41
-25
-23
-20
-11
-6
-6
-4
2
4
4
9
20
27
20
13
25
39
41
43
48
50
50
55
62
67
62
53
55
46
18
4
16
25
27
32
34
34
36
43
57
64
83
115
124
106
97
106
101
55
16
18
32
32
36
46
48
50
43
2
32
360
899
1268
1164
529
-92
-145
-9
-78
-120
-53
-39
-55
-39
-18
-16
-13
-6
-2
0
6
20
27
30
39
53
62
71
90
108
110
110
134
164
175
166
154
154
154
150
140
122
83
0
-80
-113
-136
-171
-187
-191
-196
-189
-184
-191
-203
-194
-171
-152
-140
-129
-117
-106
-99
-94
-80
-64
-62
-67
-55
-39
-41
-39
-25
-20
-25
-18
0
9
6
6
16
23
27
34
43
43
46
55
64
71
71
67
71
85
80
69
73
78
73
78
92
94
92
97
99
97
99
108
115
108
101
106
115
115
117
138
157
131
90
67
34
-16
-46
-43
-36
-34
-36
-41
-32
-20
-18
-20
-36
46
416
922
1171
940
316
-147
-117
-11
-69
-80
-39
-48
-62
-43
-32
-27
-20
-16
-9
2
18
32
36
32
27
34
48
62
71
85
101
117
136
152
159
164
171
175
182
191
196
175
140
106
69
25
-16
-50
-64
-67
-76
-92
-113
-145
-168
-161
-150
-154
-150
-131
-117
-108
-99
-85
-76
-80
-76
-55
-46
-48
-46
-34
-30
-30
-23
-9
-4
-4
6
18
23
23
30
30
6
-25
-23
-2
-6
-23
-6
13
6
4
23
32
30
34
46
50
50
53
60
64
67
71
78
78
73
80
97
104
97
90
92
99
94
76
57
53
53
48
64
80
87
106
127
108
53
36
55
39
9
2
2
-2
-4
-2
6
11
9
-6
48
344
811
1104
968
411
-99
-136
-9
-60
-113
-85
-90
-115
-108
-99
-94
-85
-76
-69
-60
-50
-36
-16
-11
-16
-2
23
34
41
62
78
90
104
134
164
182
191
203
224
235
214
180
147
113
78
46
16
-18
-43
-46
-43
-50
-50
-39
-41
-76
-92
-71
-53
-53
-50
-39
-34
-34
-23
-9
-11
-18
-6
9
9
4
9
6
-11
-16
0
6
-4
-4
9
20
25
27
32
39
41
48
62
62
50
53
67
71
69
71
69
64
71
80
87
85
76
80
83
50
23
32
41
30
25
36
41
36
34
39
46
46
48
57
55
46
53
71
78
71
67
67
41
-27
-94
-97
-94
-127
-134
-108
-99
-106
-110
-99
-94
-122
-87
194
674
1023
945
395
-171
-242
-99
-136
-175
-127
-108
-117
-108
-101
-90
-69
-60
-67
-67
-53
-41
-30
-16
-11
-16
-20
-23
-34
-43
-25
2
18
27
53
90
120
127
131
157
171
161
154
134
90
39
2
-23
-46
-62
-62
-57
-57
-50
-34
-25
-20
-18
-13
-16
-18
-18
-6
0
-25
-60
-57
-41
-46
-41
-27
-25
-27
-23
-6
6
13
16
23
23
20
32
34
20
13
20
30
32
32
41
43
23
9
18
9
-18
-23
-9
-4
-4
4
18
16
-2
-13
-20
-23
-18
-11
-4
18
43
53
53
43
30
25
30
20
6
11
20
16
9
16
32
13
-16
152
656
1192
1324
857
101
-224
-92
-64
-140
-117
-87
-94
-78
-53
-39
-27
-13
-4
11
25
32
30
36
57
73
83
97
106
115
131
150
154
159
184
221
244
263
277
288
293
281
240
196
154
80
-11
-62
-76
-97
-113
-106
-92
-94
-90
-64
-41
-39
-39
-43
-48
-39
-20
-9
-9
-20
-18
2
11
9
4
9
20
20
18
34
36
27
30
41
32
0
-11
2
4
2
13
18
2
-13
-11
-6
-20
-25
-13
-2
-2
-13
-30
-23
-9
-11
6
46
62
57
53
43
30
16
-2
-23
-36
-39
-27
-13
-11
-4
-9
-43
4
358
919
1273
1081
383
-194
-189
-53
-117
-145
-99
-101
-99
-62
-48
-55
-41
-23
-20
-2
23
27
25
43
67
71
78
99
113
110
87
78
113
154
166
182
214
235
242
249
249
224
171
106
64
30
-25
-60
-69
-80
-90
-76
-67
-71
-62
-39
-25
-23
-20
-6
13
25
27
34
34
32
30
23
23
20
11
18
32
30
20
32
39
27
32
53
57
50
48
53
57
62
69
71
62
60
69
78
83
76
73
83
87
80
69
55
25
-9
-11
-4
-36
-62
-39
-20
-41
-48
-39
-50
-64
-57
-55
-62
-64
-60
-55
-48
-41
-30
-18
-27
-57
34
427
942
1192
940
263
-231
-198
-104
-180
-194
-150
-147
-143
-120
-106
-97
-85
-80
-76
-60
-36
-32
-34
-16
6
16
27
48
60
71
97
124
145
171
196
219
233
233
238
251
247
219
184
150
104
48
4
-32
-94
-154
-150
-134
-145
-143
-110
-87
-85
-76
-57
-46
-43
-39
-20
-4
-6
-4
11
18
9
-4
-6
2
6
11
18
20
16
23
41
46
46
53
53
46
48
57
62
64
60
67
78
76
73
80
87
83
78
83
90
85
69
57
60
64
64
69
73
71
73
78
83
83
69
43
27
30
39
43
39
41
50
60
62
53
43
55
43
6
13
53
43
16
11
9
0
-11
-32
-39
-25
-16
-11
-2
2
4
0
-18
73
434
910
1150
905
254
-201
-154
-67
-140
-143
-97
-108
-110
-87
-85
-90
-73
-69
-99
-134
-124
-99
-87
-73
-55
-46
-43
-25
0
20
34
48
57
64
85
117
140
152
159
168
180
175
140
101
67
25
-23
-57
-76
-99
-120
-117
-106
-122
-168
-180
-150
-138
-140
-124
-108
-113
-113
-99
-85
-85
-97
-97
-83
-76
-73
-67
-67
-64
-55
-46
-36
-27
-23
-18
-6
0
0
2
6
6
16
34
43
41
46
53
60
64
69
73
78
71
55
53
62
64
67
73
76
73
83
90
76
60
67
80
78
67
55
48
50
60
64
62
57
57
62
64
36
6
13
18
-2
-6
16
39
43
34
18
16
23
18
-2
-23
-25
-6
9
6
6
9
-9
-53
18
406
961
1259
1009
309
-191
-134
-20
-104
-120
-64
-64
-60
-39
-60
-69
-36
-18
-16
-2
16
23
30
43
64
73
71
87
117
122
120
147
182
201
221
254
288
305
302
309
323
318
286
244
180
90
9
-23
-43
-85
-113
-106
-101
-140
-171
-143
-127
-164
-175
-138
-117
-122
-115
-101
-97
-99
-90
-76
-73
-69
-60
-50
-46
-43
-39
-27
-20
-16
0
-4
-43
-71
-50
-34
-36
-30
-18
-13
-16
-6
11
18
9
2
6
16
18
20
30
30
20
16
18
11
-4
-4
9
11
4
6
16
18
18
20
27
27
20
27
41
23
4
25
43
30
13
16
20
4
-27
-30
-9
-4
-2
11
16
13
13
-6
73
466
1026
1338
1111
397
-143
-108
-18
-122
-131
-64
-69
-80
-53
-30
-18
-9
-2
-9
-13
-4
13
27
39
48
60
78
94
110
136
159
168
191
233
261
277
302
325
332
335
335
325
300
244
182
136
92
41
6
-16
-55
-101
-115
-97
-90
-94
-73
-41
-32
-27
-9
0
2
9
18
23
11
-4
-4
6
4
-6
-18
-41
-53
-39
-27
-27
-25
-20
-13
-11
-16
-16
-4
-4
-16
-20
-18
-23
-36
-43
-36
-30
-32
-30
-30
-53
-87
-92
-71
-85
-127
-134
-108
-99
-99
-85
-76
-80
-73
-57
-43
-39
-46
-55
-43
-30
-27
-16
2
18
34
41
30
18
20
13
-18
-64
-80
-60
-57
-78
-71
-43
-36
-78
-55
261
783
1109
968
374
-198
-272
-150
-201
-242
-187
-173
-180
-159
-143
-129
-101
-85
-85
-67
-39
-23
-13
2
18
30
43
69
92
99
113
143
171
191
221
261
284
298
312
314
300
288
272
231
177
124
83
57
27
0
-9
4
9
4
13
30
32
32
50
57
27
0
16
36
36
23
6
11
18
16
23
16
-11
-9
6
-4
-16
-4
-2
-9
-9
6
18
18
13
20
30
27
27
39
43
41
46
55
55
39
27
25
16
9
9
13
13
6
-4
2
16
9
-4
0
9
6
9
18
16
16
23
34
39
34
34
46
53
53
60
76
92
110
120
115
101
80
55
43
39
34
27
20
-6
-30
-9
6
-55
-76
189
693
1063
1030
531
-71
-226
-90
-94
-138
-97
-78
-90
-73
-60
-48
-25
-13
-20
-13
6
16
16
18
13
9
23
41
53
64
80
104
127
145
171
205
217
217
233
254
263
251
219
173
127
73
30
-6
-53
-87
-97
-94
-106
-129
-136
-129
-131
-117
-94
-85
-101
-134
-136
-106
-90
-90
-80
-64
-53
-46
-41
-41
-39
-34
-27
-16
-4
2
4
2
-9
-13
-2
4
-4
0
18
18
2
2
11
18
25
30
36
39
36
46
60
55
39
32
30
18
9
11
18
16
13
20
27
27
30
34
32
30
41
60
67
57
46
34
30
36
41
32
16
11
20
30
43
48
43
43
11
-11
233
801
1273
1261
677
-32
-194
-25
-57
-124
-69
-43
-57
-32
-13
-25
-32
-18
-4
6
20
27
32
50
73
85
90
101
124
145
166
184
203
231
258
284
316
342
346
351
362
362
337
291
235
173
115
64
0
-73
-122
-127
-117
-131
-154
-150
-134
-124
-110
-87
-71
-62
-57
-53
-43
-41
-34
-27
-43
-80
-97
-78
-78
-122
-145
-122
-110
-115
-108
-104
-122
-134
-124
-117
-122
-122
-117
-115
-113
-110
-106
-99
-104
-108
-104
-90
-90
-99
-97
-85
-78
-76
-71
-78
-92
-94
-87
-85
-83
-76
-64
-53
-39
-20
-27
-57
-69
-50
-36
-41
-53
-48
-39
-32
-32
-25
-2
6
-16
-23
173
649
1123
1245
825
120
-177
-30
6
-85
-67
-23
-25
-13
2
-2
-4
-13
-27
-11
6
2
11
36
48
55
76
99
113
124
147
180
198
212
238
272
302
321
337
346
344
335
325
300
249
191
131
76
43
18
-11
-39
-50
-43
-30
-18
-13
-11
-2
13
25
32
43
55
53
55
64
67
62
62
67
71
69
67
76
78
73
69
57
46
50
60
60
55
55
67
73
73
67
67
71
46
-6
-18
-4
-11
-9
9
20
11
4
13
11
-18
-39
-27
-20
-27
-18
-4
-16
-39
-48
-43
-43
-60
-80
-80
-60
-32
-18
-18
-27
-34
-32
-34
-50
-57
-36
-25
-34
-32
-11
4
-9
-20
140
568
1000
1118
781
159
-184
-101
-43
-113
-106
-64
-69
-64
-39
-25
-11
0
0
2
23
39
41
48
64
55
32
34
60
60
34
41
80
104
122
154
184
208
224
226
233
235
217
194
168
122
57
6
-20
-41
-53
-53
-53
-53
-46
-36
-20
-6
6
11
11
13
25
43
46
32
30
48
55
46
43
36
18
16
25
36
39
36
36
46
50
57
69
73
60
46
60
73
64
57
62
71
73
76
83
76
41
16
25
30
13
6
2
-9
-13
-4
9
11
9
9
20
18
-6
-20
-6
2
0
20
57
73
60
41
25
9
-4
-18
-36
-46
-41
-27
-18
-18
-20
-16
-36
-64
104
591
1090
1211
769
50
-240
-94
-73
-159
-129
-87
-97
-85
-87
-122
-113
-73
-64
-64
-46
-27
-18
-9
9
25
27
34
57
87
101
104
115
136
138
129
166
208
210
210
221
201
157
129
92
32
-27
-69
-99
-122
-138
-143
-138
-143
-145
-134
-120
-117
-115
-97
-80
-80
-90
-94
-90
-87
-87
-83
-85
-92
-85
-67
-60
-67
-62
-46
-32
-30
-25
-18
-11
-9
-4
4
9
9
11
16
25
36
43
50
50
46
39
32
34
43
46
43
36
30
36
36
6
-20
-20
-34
-64
-57
-34
-20
4
32
46
36
18
23
39
30
9
-4
-11
-25
-32
-23
-18
-34
-67
-62
154
661
1160
1268
783
27
-247
-83
-64
-157
-129
-85
-87
-78
-60
-46
-30
-27
-25
2
25
27
27
50
73
80
92
110
120
129
145
161
191
221
240
261
295
323
337
346
346
335
305
247
187
136
80
32
6
-11
-23
-25
-50
-92
-94
-69
-64
-67
-46
-25
-23
-27
-20
-9
-11
-9
9
16
4
-2
2
0
-30
-53
-36
-25
-32
-32
-20
-13
-18
-23
-13
-2
-4
0
11
11
2
11
25
27
27
20
11
11
16
18
27
23
2
-2
9
2
-13
-9
-2
-9
-25
-46
-46
-41
-48
-48
-23
2
13
13
-4
-27
-36
-41
-62
-97
-122
-134
-150
-177
-175
-150
-147
-175
-168
41
515
977
1086
658
-32
-300
-147
-120
-208
-184
-136
-143
-131
-99
-90
-85
-67
-46
-27
-16
-11
0
16
13
16
36
55
67
85
106
134
159
173
196
238
265
279
298
314
309
288
263
240
196
136
90
57
25
9
6
0
-6
-4
6
13
6
4
20
32
30
41
55
41
9
-2
11
16
6
6
11
16
20
27
36
27
18
32
50
50
46
46
46
53
62
69
73
78
71
67
73
76
71
73
83
87
87
90
90
85
85
99
106
90
71
69
62
43
34
48
55
48
43
50
55
50
55
62
67
85
101
94
64
16
-6
-4
-32
-64
-62
-50
-53
-55
-41
-25
-25
-53
-67
85
513
1003
1208
843
87
-288
-145
-87
-184
-164
-113
-124
-122
-97
-99
-104
-85
-67
-55
-32
-16
-6
0
13
36
55
69
76
87
115
145
164
187
214
228
231
251
281
293
288
295
298
268
219
166
110
41
-27
-55
-53
-53
-60
-57
-43
-30
-23
-13
-6
0
11
18
27
39
43
46
50
48
39
41
46
25
-13
-23
-6
-9
-16
0
6
-9
-11
9
11
2
6
25
32
27
32
46
48
46
46
50
50
55
67
71
69
62
62
50
16
-9
4
13
6
0
6
30
39
23
0
4
27
50
78
85
62
53
64
62
32
6
2
-11
-27
-16
-2
-6
-27
-60
-18
293
864
1342
1328
661
-97
-231
-55
-106
-180
-136
-127
-154
-159
-157
-147
-131
-113
-90
-73
-64
-60
-53
-32
-11
2
23
43
55
69
99
129
152
173
191
189
173
180
208
217
208
205
189
136
73
20
-30
-64
-92
-110
-117
-120
-122
-115
-97
-83
-76
-64
-43
-25
-16
-6
4
6
9
23
27
16
9
11
18
13
11
18
16
-9
-11
6
11
6
16
23
20
20
32
46
36
-4
-20
0
9
0
2
16
18
16
23
39
36
11
-16
-25
-25
-30
-23
-13
-18
-27
-20
-9
-11
-16
-9
2
11
25
53
76
71
53
43
39
20
-9
-25
-25
-25
-20
-16
-13
-13
-4
-13
-23
140
600
1100
1275
887
145
-224
-106
-69
-152
-127
-92
-115
-106
-73
-64
-60
-43
-32
-30
-20
-2
13
23
34
53
55
30
9
36
69
76
76
97
131
157
177
194
210
224
231
240
233
184
136
104
64
16
-18
-36
-53
-57
-50
-43
-48
-50
-32
-9
2
0
6
16
4
0
16
27
23
16
9
2
0
4
9
9
2
6
20
23
18
20
25
25
23
30
41
39
25
27
41
25
-13
-16
0
-6
-6
9
-4
-69
-120
-108
-101
-129
-136
-115
-110
-113
-101
-90
-90
-92
-87
-76
-67
-67
-64
-55
-55
-62
-64
-64
-73
-101
-108
-87
-83
-87
-67
-43
-46
-55
-57
-55
-64
-94
-115
-110
-110
-120
-113
-99
-97
-94
-97
-104
34
439
892
1060
758
124
-244
-159
-85
-154
-140
-87
-97
-101
-69
-50
-50
-36
-30
-48
-55
-34
-23
-18
-6
9
27
25
9
23
48
41
23
50
97
117
129
164
198
210
217
233
228
198
161
131
94
55
23
0
-18
-34
-39
-39
-46
-50
-39
-20
-11
-4
6
20
27
34
43
53
55
50
55
64
62
62
71
71
64
64
78
90
87
78
80
85
83
87
78
39
16
32
50
53
48
34
27
30
25
27
39
25
-13
-27
-11
-9
-11
-4
2
4
6
16
27
25
18
23
25
13
-4
-13
-13
-20
-23
-11
0
9
30
53
50
32
23
23
9
-34
-67
-55
-41
-48
-43
-25
-16
-25
-41
62
464
986
1231
947
247
-210
-131
-34
-115
-140
-131
-147
-138
-117
-108
-97
-85
-80
-73
-57
-43
-32
-16
-4
-9
-9
6
30
41
53
71
90
87
83
97
113
104
104
131
157
152
124
90
53
2
-48
-87
-124
-145
-152
-150
-140
-138
-136
-115
-97
-85
-67
-43
-36
-36
-23
-6
2
4
11
20
27
27
32
39
36
32
34
27
9
-4
-2
9
11
16
32
39
23
18
30
39
36
32
32
34
41
48
55
60
50
55
73
76
69
73
78
71
64
64
55
43
48
67
60
16
-20
-6
-6
-43
-53
-32
-25
-27
-23
-13
-9
-2
-13
6
268
797
1254
1275
700
-25
-189
-18
-48
-120
-64
-43
-71
-62
-36
-39
-60
-62
-39
-23
-20
-4
13
20
27
46
71
85
97
113
131
154
180
212
249
277
293
314
335
342
337
328
307
263
198
131
71
4
-64
-92
-90
-97
-99
-87
-83
-106
-129
-110
-80
-73
-67
-48
-34
-32
-25
-11
-2
-2
4
16
18
13
9
11
23
25
13
2
-2
0
11
18
-2
-27
-20
-6
-6
-2
6
11
13
16
20
18
9
4
6
13
18
23
25
27
27
27
41
69
94
99
76
48
48
55
43
20
-6
-16
-16
-20
-20
-13
-6
-13
-41
0
309
820
1174
1086
501
-129
-247
-108
-140
-189
-143
-127
-131
-104
-90
-90
-85
-90
-80
-55
-46
-48
-36
-30
-39
-36
-18
0
23
43
67
94
115
134
164
201
233
247
251
265
272
263
244
212
154
99
64
36
6
-20
-32
-30
-32
-41
-27
-6
-9
-11
13
36
32
27
36
43
46
48
60
64
55
50
62
69
69
64
64
53
18
2
16
23
13
6
13
20
23
27
34
36
34
16
-6
-2
4
2
13
30
30
27
32
34
39
53
55
50
46
50
57
57
57
62
55
23
-20
-36
-27
-23
-9
18
32
18
11
23
23
0
-23
-23
-11
-11
-13
-6
2
6
4
-23
48
402
859
1070
832
214
-235
-203
-122
-205
-224
-194
-244
-277
-240
-214
-214
-205
-194
-184
-189
-198
-187
-171
-166
-152
-127
-110
-97
-76
-55
-34
-4
25
55
83
106
136
168
184
191
198
191
157
110
76
43
0
-36
-53
-55
-62
-60
-48
-43
-43
-30
-9
6
6
9
27
39
43
57
67
60
48
55
69
73
69
64
71
73
67
67
78
73
67
78
94
85
76
85
80
25
-18
-2
16
-2
-4
20
34
32
32
39
43
48
57
69
69
57
60
78
87
83
71
64
71
76
78
80
78
78
87
97
92
83
83
101
115
120
120
110
97
97
92
73
62
69
73
64
64
76
85
83
53
97
422
926
1213
989
321
-189
-164
-48
-115
-127
-85
-108
-136
-127
-117
-104
-87
-85
-80
-64
-53
-60
-83
-85
-67
-76
-99
-76
-41
-36
-27
6
32
50
90
122
145
168
187
203
214
210
182
147
110
57
4
-30
-57
-78
-76
-67
-71
-80
-64
-34
-20
-23
-18
-2
2
2
20
34
11
-11
2
16
16
13
18
18
23
30
32
32
39
23
-6
-4
11
16
23
30
27
27
41
53
48
43
60
69
55
55
76
78
55
50
64
57
20
2
11
18
18
20
27
39
57
73
64
46
43
41
27
18
16
20
23
20
25
36
46
23
-2
152
626
1153
1322
889
106
-265
-131
-85
-177
-157
-113
-127
-117
-92
-85
-76
-69
-80
-78
-55
-48
-43
-23
-4
0
16
43
62
71
80
106
134
159
187
214
226
235
256
277
288
284
256
212
147
50
-32
-62
-90
-124
-131
-122
-117
-117
-115
-94
-73
-67
-55
-34
-27
-27
-16
-4
0
2
4
-4
-13
-13
-9
-9
-13
-11
0
6
2
2
0
-6
-25
-43
-50
-67
-87
-76
-53
-46
-46
-39
-32
-23
-13
-11
-6
0
4
9
20
18
6
11
25
30
41
67
80
67
43
46
53
36
18
23
20
2
-4
13
16
-16
-57
-76
30
406
905
1167
919
224
-270
-210
-108
-201
-221
-164
-168
-180
-145
-129
-138
-129
-99
-83
-83
-71
-50
-36
-27
-18
-18
-30
-25
0
27
50
73
99
129
157
180
210
235
247
242
226
205
180
136
80
39
4
-32
-53
-55
-64
-73
-69
-53
-46
-39
-25
-18
-16
-9
4
20
18
6
16
34
9
-32
-36
-23
-25
-27
-27
-41
-43
-34
-27
-18
-13
-9
-2
0
0
9
25
30
25
30
41
46
41
27
18
25
30
30
39
48
46
46
57
62
60
64
60
39
32
50
60
53
48
60
73
85
101
117
113
85
69
80
83
60
36
34
39
39
39
46
53
53
53
34
76
374
857
1167
1037
448
-122
-189
-99
-233
-305
-226
-219
-242
-205
-182
-184
-168
-145
-127
-117
-110
-97
-85
-94
-94
-69
-53
-50
-30
0
23
32
46
76
106
124
136
154
168
171
175
173
150
108
67
20
-30
-71
-90
-97
-117
-129
-122
-113
-110
-106
-99
-90
-73
-62
-57
-48
-46
-48
-41
-34
-25
-23
-32
-36
-30
-18
-4
-4
-11
-4
16
23
18
23
36
23
-13
-25
-4
4
-4
4
16
-2
-23
-6
9
6
9
23
41
43
32
30
30
30
34
43
50
55
60
62
69
73
76
83
92
97
99
101
94
92
101
122
136
140
143
138
122
110
113
110
92
80
83
80
64
55
55
62
67
48
129
503
1028
1301
1060
360
-173
-131
-18
-106
-127
-71
-71
-85
-97
-115
-122
-134
-131
-104
-85
-73
-64
-48
-23
-6
-11
-6
16
43
67
92
110
129
159
201
242
263
265
281
302
302
286
270
233
173
117
76
39
4
-16
-16
-11
-18
-23
-13
0
6
9
16
11
-16
-36
-25
-18
-18
-6
-2
-4
-4
4
13
18
20
23
27
27
23
30
41
39
32
30
23
9
11
20
27
4
-36
-46
-34
-36
-32
-13
-4
-2
4
18
23
20
32
46
46
36
41
55
62
55
50
73
101
106
99
94
87
78
71
60
48
46
48
34
20
25
41
41
9
69
439
996
1319
1095
369
-198
-177
-57
-134
-152
-104
-113
-115
-85
-78
-78
-55
-41
-43
-55
-57
-43
-30
-18
-2
2
0
16
39
34
11
30
78
101
117
157
201
221
231
247
251
224
191
164
122
62
11
-18
-43
-62
-62
-60
-60
-55
-46
-30
-18
-20
-25
-11
6
9
13
30
39
34
36
43
46
43
43
39
36
46
60
64
55
46
50
60
62
62
69
73
64
41
30
46
55
41
34
41
39
43
55
53
50
57
62
67
64
50
43
34
2
-16
0
2
-11
-2
6
-20
-64
-62
-30
-6
6
13
9
0
-4
-20
-57
-83
-90
-90
-92
-92
-87
-73
-67
-92
-99
110
575
998
1070
640
-25
-281
-147
-134
-212
-187
-152
-164
-157
-136
-131
-129
-134
-143
-134
-122
-131
-131
-110
-94
-87
-78
-62
-48
-32
-11
13
34
48
69
108
138
152
166
187
189
154
117
99
67
16
-25
-53
-78
-99
-97
-85
-97
-106
-83
-60
-53
-46
-32
-13
2
11
23
39
36
30
43
53
46
39
46
50
46
48
62
64
57
60
73
76
71
80
87
60
16
13
36
41
34
41
55
62
60
55
57
67
67
71
83
83
73
73
73
64
62
69
64
50
50
64
71
64
55
57
67
69
60
43
27
-4
-32
-25
-11
-11
-2
2
-6
-20
-20
-9
-20
-46
-48
-32
-27
-27
-23
-13
-4
-6
-18
60
381
841
1107
940
355
-131
-145
-62
-136
-154
-101
-99
-110
-83
-55
-48
-43
-30
-23
-27
-41
-53
-32
-20
-50
-64
-32
-4
-4
16
50
64
76
110
150
171
184
203
221
221
214
219
210
168
122
83
43
0
-39
-48
-50
-78
-110
-108
-104
-129
-145
-124
-110
-120
-120
-101
-90
-94
-94
-87
-87
-90
-80
-71
-76
-92
-101
-108
-117
-117
-108
-97
-85
-78
-67
-46
-34
-27
-20
-9
-2
2
9
18
20
20
34
50
60
57
60
71
67
55
62
71
57
43
53
62
62
64
69
69
69
80
108
134
143
143
138
131
129
108
71
27
-13
-18
-2
-23
-62
-60
-39
-60
-39
238
767
1211
1204
600
-108
-238
-85
-145
-205
-152
-138
-143
-115
-101
-90
-60
-43
-36
-23
-6
4
20
41
57
55
60
83
113
131
147
164
187
212
238
268
284
281
284
305
323
316
293
256
205
152
108
73
41
9
-9
0
6
11
16
23
30
39
46
62
76
69
62
78
76
34
9
16
2
-16
-4
11
6
-18
-30
-16
-18
-27
-16
-6
-13
-6
11
23
20
11
11
20
-2
-36
-30
-13
-23
-18
0
-4
-20
-25
-18
-18
-30
-36
-27
-27
-32
-25
-13
-9
-6
9
39
50
30
13
20
6
-27
-53
-67
-85
-97
-94
-92
-94
-90
-78
-97
-62
240
734
1058
947
367
-198
-254
-147
-226
-258
-194
-203
-231
-194
-164
-166
-145
-120
-106
-90
-64
-39
-25
-16
-2
18
32
43
62
83
97
115
147
180
201
212
221
238
256
272
279
272
247
212
175
134
90
48
27
20
20
18
23
27
34
46
60
67
67
76
94
101
97
101
110
104
99
101
90
69
64
69
69
71
78
87
90
78
55
50
57
30
-13
-4
25
23
18
32
36
30
34
55
64
60
67
78
76
73
80
85
67
43
46
55
53
50
57
57
64
85
113
131
122
101
99
106
92
76
76
73
57
48
57
57
34
13
0
48
353
878
1234
1093
436
-161
-189
-62
-166
-226
-154
-138
-159
-143
-122
-120
-124
-122
-101
-85
-85
-73
-50
-43
-32
-9
6
-11
-32
-9
25
36
53
85
120
152
171
177
191
198
196
198
177
129
73
20
-23
-60
-87
-106
-124
-136
-129
-117
-117
-110
-94
-87
-85
-73
-57
-41
-36
-36
-27
-6
-2
-20
-36
-41
-36
-27
-16
-6
-6
-9
2
16
20
27
34
16
-11
-11
6
16
13
9
18
36
48
57
64
60
57
69
76
73
73
78
71
46
18
18
36
41
48
83
106
99
87
87
90
78
53
32
30
32
34
41
43
43
41
20
57
351
869
1264
1194
570
-69
-140
0
-76
-138
-97
-101
-129
-108
-83
-85
-90
-78
-57
-43
-39
-39
-55
-67
-46
-16
-2
9
16
34
64
90
108
134
161
180
203
233
254
254
235
224
210
168
120
80
25
-55
-104
-101
-101
-113
-104
-83
-80
-83
-57
-32
-30
-30
-9
4
-18
-50
-48
-30
-30
-36
-23
-9
-16
-25
-23
-16
-16
-18
-13
-4
-2
-2
6
11
2
2
20
27
23
13
-4
-20
-13
-4
-2
-2
-9
-9
2
4
2
6
6
0
-6
-16
-20
-23
-25
-11
18
34
25
11
2
-2
-11
-18
-27
-36
-39
-32
-36
-73
-97
-83
-92
-101
94
550
952
989
556
-43
-247
-120
-101
-166
-154
-129
-124
-106
-85
-87
-90
-80
-80
-80
-62
-50
-48
-39
-20
-2
11
18
13
6
13
34
69
101
113
129
166
196
203
205
214
208
175
147
124
76
23
-2
-13
-32
-48
-43
-36
-39
-34
-16
2
2
6
20
39
48
55
62
57
34
2
-2
13
11
4
16
30
25
23
25
27
27
32
43
50
48
48
57
64
62
67
73
76
78
80
83
85
83
64
43
41
55
60
62
67
64
69
83
83
78
87
106
120
113
106
110
104
83
71
76
78
78
73
73
78
80
76
34
23
272
790
1178
1074
466
-117
-171
-36
-90
-124
-76
-78
-92
-83
-99
-129
-115
-97
-108
-115
-108
-101
-97
-87
-71
-55
-46
-30
-6
11
18
36
80
117
131
131
145
175
196
203
212
203
168
131
90
30
-36
-73
-85
-99
-110
-101
-90
-87
-85
-62
-39
-36
-32
-11
0
0
2
13
20
20
25
30
30
30
32
27
25
20
23
43
48
27
18
34
46
41
43
55
60
53
60
69
67
60
67
78
67
27
13
25
27
30
43
53
46
27
23
57
85
85
78
73
71
57
39
36
34
20
20
36
43
43
55
43
20
168
633
1153
1322
905
147
-201
-64
-30
-122
-106
-71
-83
-71
-50
-48
-43
-27
-23
-27
-27
-23
-18
-11
-6
-2
4
4
0
13
30
41
64
94
106
129
166
189
196
208
205
189
145
87
43
-6
-83
-129
-136
-147
-161
-168
-182
-191
-175
-150
-134
-129
-127
-110
-90
-99
-127
-127
-106
-101
-101
-87
-73
-73
-73
-62
-46
-39
-34
-27
-27
-27
-13
-2
2
2
2
2
-4
-9
2
13
6
6
20
32
32
32
36
48
57
53
53
62
60
57
73
92
106
122
134
127
110
108
113
71
-9
-46
-25
-11
-25
-27
-13
-4
-4
-25
27
339
818
1118
984
404
-129
-171
-53
-106
-140
-92
-78
-83
-69
-55
-41
-27
-27
-18
-2
2
6
23
43
53
46
36
43
46
41
50
67
80
104
134
154
164
168
180
189
187
180
161
122
73
32
0
-25
-48
-67
-71
-69
-64
-64
-76
-94
-87
-83
-85
-76
-69
-71
-64
-78
-115
-113
-85
-90
-99
-76
-53
-53
-57
-50
-32
-25
-27
-13
-4
-9
-4
9
18
20
27
36
43
43
43
43
34
27
36
53
55
50
57
67
69
71
78
92
92
76
78
101
117
136
164
164
134
124
143
140
110
90
92
101
101
97
80
34
-20
-46
-23
180
633
1063
1107
630
-11
-196
-57
-101
-219
-187
-134
-152
-157
-129
-115
-113
-101
-85
-67
-60
-60
-46
-27
-20
-20
-4
11
2
-6
11
23
16
30
62
90
108
122
134
140
138
127
113
83
27
-27
-64
-94
-131
-154
-159
-154
-154
-147
-127
-117
-115
-99
-76
-64
-62
-73
-94
-94
-78
-71
-67
-62
-60
-50
-32
-27
-23
-16
-18
-13
2
13
20
20
16
23
23
0
-18
-2
4
-6
6
34
41
30
20
23
25
25
36
48
53
69
108
124
110
104
115
117
101
83
78
85
83
83
94
101
101
106
90
94
342
866
1315
1310
718
16
-120
41
-9
-90
-60
-60
-71
-34
-18
-39
-43
-30
-18
-6
2
13
18
20
32
50
64
73
85
101
117
134
157
189
210
219
238
244
233
221
214
205
171
94
18
-20
-62
-113
-129
-124
-134
-136
-129
-122
-115
-101
-87
-76
-71
-60
-41
-27
-27
-34
-27
-18
-41
-78
-76
-50
-55
-67
-64
-53
-46
-50
-69
-87
-83
-67
-50
-41
-46
-43
-30
-18
-13
-9
-9
-9
0
16
30
27
23
34
55
67
85
108
122
115
99
92
90
78
55
46
57
57
55
67
69
41
9
-4
36
288
765
1148
1102
547
-50
-138
2
-43
-92
-34
-18
-34
-20
-4
-2
9
16
0
-16
-16
-4
9
18
16
2
2
20
39
55
78
92
108
136
166
191
208
219
228
228
217
198
159
99
50
20
-18
-62
-87
-97
-117
-134
-127
-108
-104
-106
-90
-69
-67
-62
-46
-32
-32
-30
-18
-4
-6
-20
-16
-2
-20
-60
-64
-43
-43
-48
-34
-18
-20
-23
-9
-2
-9
-9
-2
-2
-2
4
13
25
16
-6
-6
9
11
16
32
25
16
30
43
48
60
83
106
110
99
94
99
92
73
64
64
67
60
53
55
60
64
67
53
120
443
901
1139
933
351
-90
-69
25
-39
-55
-30
-73
-94
-53
-34
-43
-27
-11
-27
-64
-78
-53
-41
-55
-60
-50
-32
-16
0
20
34
46
76
110
117
110
136
171
177
173
171
157
113
62
27
-6
-60
-92
-97
-99
-101
-97
-87
-85
-85
-80
-73
-73
-73
-67
-55
-46
-41
-34
-20
-13
-16
-16
-11
-6
-4
0
9
13
9
18
34
30
16
23
43
46
39
46
55
57
67
71
48
-2
-25
-4
0
-34
-53
-32
-23
-30
-27
-30
-48
-57
-36
-11
4
30
53
50
39
43
50
41
25
20
30
39
50
57
62
64
50
13
83
439
970
1289
1090
409
-124
-85
36
-53
-73
-6
0
-11
4
20
30
34
36
55
71
67
53
60
76
80
76
87
106
117
122
136
154
173
198
228
251
265
277
288
288
261
210
145
64
-6
-64
-108
-138
-161
-173
-175
-173
-171
-159
-140
-127
-131
-131
-104
-78
-85
-97
-94
-83
-76
-73
-67
-62
-62
-57
-53
-71
-97
-97
-87
-92
-78
-55
-50
-55
-53
-39
-23
-16
-9
-2
-2
-4
2
16
23
25
27
20
11
13
32
60
80
90
87
78
80
87
71
50
50
43
18
11
20
23
27
39
20
18
235
741
1199
1208
656
-36
-228
-78
-85
-157
-127
-101
-108
-92
-78
-71
-46
-30
-32
-18
9
18
23
30
34
43
55
62
80
104
115
134
164
184
201
226
256
272
275
272
275
256
210
159
104
41
-13
-57
-92
-115
-124
-124
-120
-124
-124
-106
-94
-110
-113
-97
-87
-80
-67
-60
-64
-60
-55
-48
-41
-43
-41
-27
-27
-43
-48
-39
-53
-90
-87
-64
-62
-62
-43
-30
-36
-39
-23
-9
-9
-11
-2
6
9
11
20
32
27
27
41
50
57
78
101
113
108
92
78
71
60
41
32
39
48
50
50
53
57
67
55
62
277
744
1127
1077
550
-43
-182
-50
-67
-115
-69
-53
-78
-67
-34
-25
-23
-18
-27
-32
-25
-20
-32
-67
-87
-62
-60
-122
-150
-104
-80
-80
-48
-9
13
36
64
87
101
113
117
97
53
2
-43
-87
-131
-166
-182
-198
-226
-235
-219
-210
-214
-203
-184
-175
-171
-161
-154
-152
-145
-136
-127
-124
-131
-140
-145
-161
-161
-143
-138
-140
-136
-127
-110
-97
-94
-85
-67
-60
-67
-62
-43
-32
-34
-25
-6
-2
-4
6
18
20
27
43
43
16
-6
6
23
18
18
34
46
43
50
71
83
94
122
152
152
129
115
117
110
92
85
92
97
97
106
117
117
106
87
122
374
834
1190
1146
624
27
-99
20
-18
-71
-30
-11
-23
-9
4
-2
-6
-6
-4
6
18
25
27
32
43
57
76
85
87
104
131
152
168
187
198
208
219
228
231
228
224
214
196
136
53
4
-23
-60
-85
-94
-113
-134
-134
-117
-104
-94
-83
-64
-53
-55
-46
-23
-18
-20
-9
2
-2
-4
11
25
23
9
-11
-11
6
9
-2
-2
-18
-43
-36
-20
-32
-36
-16
0
-2
-2
9
20
27
30
36
41
48
55
64
73
71
69
78
87
99
124
152
150
127
122
127
115
92
87
92
87
80
83
90
69
34
6
48
330
862
1285
1222
582
-73
-134
30
-39
-101
-36
-16
-34
-18
-2
-4
-13
-32
-34
-18
-11
-9
6
20
23
23
32
43
53
64
97
129
140
157
189
221
235
249
256
242
226
214
189
138
78
20
-23
-53
-69
-80
-90
-97
-97
-83
-71
-64
-55
-57
-62
-50
-34
-23
-18
-20
-18
-11
-2
0
-4
-16
-36
-57
-57
-43
-39
-39
-27
-16
-20
-20
-9
-6
-27
-41
-27
-9
-9
-6
0
-4
-13
-6
4
2
0
13
25
30
32
27
32
41
46
62
97
120
113
94
94
104
94
69
60
55
53
64
76
71
69
87
80
46
171
600
1074
1222
873
219
-127
-34
13
-62
-50
-20
-48
-55
-30
-25
-30
-18
-32
-97
-143
-115
-99
-138
-145
-113
-108
-124
-106
-67
-53
-62
-55
-27
-9
4
32
55
60
69
85
90
62
23
-11
-46
-90
-127
-147
-157
-164
-166
-161
-154
-157
-157
-140
-120
-117
-113
-99
-94
-101
-110
-117
-115
-113
-115
-108
-101
-99
-94
-85
-90
-90
-69
-55
-55
-48
-32
-20
-16
-9
4
9
6
13
30
39
41
43
39
9
-32
-48
-39
-43
-57
-46
-25
-18
-18
-9
0
6
11
20
36
46
41
46
64
73
76
104
134
143
136
129
131
134
115
101
106
108
104
108
104
87
85
87
57
120
446
885
1109
926
374
-80
-87
18
-34
-57
-6
-6
-23
0
16
13
23
30
16
4
11
16
16
11
2
-11
-23
-20
2
16
-2
-13
13
50
69
87
117
136
145
159
173
168
138
101
80
55
13
-20
-34
-39
-46
-43
-32
-23
-18
-11
2
16
27
20
13
23
27
32
41
43
34
39
48
20
-20
-18
0
-2
-2
11
23
20
18
25
39
46
41
43
53
53
50
67
78
69
48
23
0
-4
11
25
27
25
34
46
46
43
48
50
39
16
9
23
30
27
46
78
101
104
87
83
87
85
71
62
57
57
60
53
43
43
39
11
30
281
781
1178
1125
554
-64
-154
0
-43
-97
-43
-32
-48
-23
-6
-11
-9
-4
-11
-18
-23
-18
-6
2
6
9
2
-13
-18
6
27
41
69
97
113
136
171
196
203
208
217
217
196
164
124
67
-11
-64
-73
-83
-104
-108
-94
-83
-76
-60
-43
-43
-53
-48
-34
-27
-25
-16
-4
-2
-9
2
9
-2
-4
16
25
20
23
27
34
39
41
48
48
39
41
57
67
69
69
67
69
69
67
69
73
50
18
25
46
41
36
46
48
46
62
80
94
110
124
124
110
104
106
99
78
69
76
85
80
62
53
57
50
18
120
533
1033
1215
873
147
-305
-219
-131
-219
-221
-164
-166
-168
-140
-124
-124
-117
-122
-131
-120
-101
-94
-83
-69
-67
-62
-36
-16
-6
6
20
27
46
80
115
131
124
127
152
171
168
157
129
78
32
-2
-32
-57
-80
-85
-80
-80
-80
-67
-53
-48
-41
-20
-4
-6
-6
4
9
-6
-11
0
-2
-6
2
13
18
18
11
16
23
-2
-30
-23
-11
-18
-11
9
16
11
6
11
23
27
32
41
43
41
46
55
62
53
46
48
53
53
60
48
34
53
90
99
76
60
71
76
57
41
46
50
48
50
57
53
41
27
20
171
593
1040
1160
801
161
-171
-78
-32
-104
-87
-50
-60
-57
-32
-25
-32
-39
-41
-41
-36
-30
-23
-20
-39
-67
-62
-34
-23
-18
-2
16
36
57
85
110
124
140
147
143
143
145
134
110
67
9
-46
-85
-108
-117
-108
-104
-104
-97
-83
-71
-60
-46
-32
-27
-23
-9
6
16
18
16
11
-11
-36
-39
-43
-62
-60
-41
-34
-32
-25
-18
-13
-6
6
20
18
13
20
34
39
36
39
46
53
53
60
71
73
67
69
76
64
34
23
27
23
18
30
55
76
87
92
97
87
64
48
36
20
13
20
34
36
32
36
50
48
32
115
446
892
1116
894
307
-122
-99
-4
-62
-90
-57
-53
-57
-46
-27
-16
-9
-4
-2
6
20
27
34
41
34
30
39
46
48
55
67
78
90
113
143
161
168
177
196
201
187
164
129
71
-9
-71
-87
-104
-134
-134
-127
-147
-164
-150
-131
-120
-106
-87
-71
-71
-71
-57
-39
-39
-39
-25
-20
-25
-20
-4
9
4
-9
-11
-6
-4
-2
-2
0
2
9
20
30
30
25
30
41
46
53
57
53
48
55
69
73
73
71
71
73
73
80
85
80
78
87
87
71
76
110
131
122
104
101
97
57
6
4
4
-25
-34
-18
-13
-11
-4
-13
16
263
739
1102
986
379
-166
-191
-78
-140
-166
-122
-127
-143
-113
-85
-80
-76
-60
-48
-36
-23
-9
2
11
13
25
41
43
43
50
50
62
87
115
138
150
159
187
210
203
191
194
177
127
67
25
-6
-41
-73
-87
-92
-85
-69
-62
-62
-57
-46
-50
-76
-83
-64
-50
-50
-41
-25
-23
-60
-101
-90
-69
-99
-131
-113
-101
-134
-166
-161
-147
-140
-127
-108
-97
-90
-78
-71
-62
-46
-36
-25
-16
-23
-18
9
20
13
18
27
27
27
43
69
87
104
120
120
106
104
104
76
41
34
48
57
60
57
67
83
85
57
94
385
903
1289
1190
540
-97
-150
2
-60
-113
-67
-62
-73
-50
-34
-30
-16
-9
-11
-9
-30
-60
-50
-25
-48
-76
-48
-13
-13
-16
4
27
34
48
76
97
110
129
154
173
171
150
122
87
43
4
-27
-62
-87
-94
-87
-85
-94
-92
-78
-71
-69
-53
-34
-27
-32
-27
-13
-4
-6
-6
-9
-34
-69
-90
-92
-85
-85
-76
-57
-55
-55
-39
-32
-34
-27
-13
-4
-4
-16
-18
-4
0
2
13
6
-36
-55
-34
-39
-83
-90
-60
-34
-18
2
4
-16
-27
-9
-9
-39
-53
-48
-43
-41
-36
-30
-25
-32
-62
-53
182
663
1046
1012
501
-83
-203
-55
-78
-140
-92
-57
-67
-57
-53
-57
-43
-41
-53
-39
-20
-27
-18
6
20
25
46
62
67
83
106
115
120
136
154
171
177
173
177
187
180
166
150
115
62
11
-18
-34
-50
-64
-64
-73
-110
-129
-101
-80
-83
-76
-50
-36
-34
-27
-18
-32
-43
-30
-9
-11
-18
-11
2
2
0
18
30
20
18
39
50
50
55
60
57
43
32
46
60
53
50
67
78
76
76
80
83
78
73
78
83
83
94
124
147
152
157
152
138
136
131
115
99
94
101
108
108
108
115
113
73
34
191
624
1044
1111
709
120
-115
-11
0
-69
-53
-23
-30
-34
-55
-73
-53
-46
-87
-104
-76
-69
-76
-55
-30
-23
-16
0
4
-6
2
34
53
60
85
124
154
171
175
159
145
138
113
76
43
4
-39
-71
-83
-92
-99
-97
-85
-80
-73
-55
-41
-43
-41
-30
-16
-9
-9
0
6
9
13
23
23
16
11
6
-20
-50
-46
-36
-43
-43
-25
-9
-9
-9
-2
9
16
27
39
39
36
41
50
55
55
57
60
48
27
32
43
43
48
64
87
104
108
110
110
106
106
108
99
80
71
78
83
85
90
92
97
85
67
205
633
1113
1245
843
175
-113
11
39
-41
-18
16
9
16
18
11
27
46
41
41
55
69
76
80
78
71
69
83
99
92
71
78
106
117
134
168
196
203
203
201
196
189
171
129
73
23
-34
-87
-110
-129
-147
-145
-131
-131
-127
-115
-97
-90
-85
-71
-57
-62
-60
-46
-43
-43
-30
-20
-25
-30
-23
-18
-13
-9
-4
-4
-27
-64
-73
-67
-71
-67
-55
-48
-39
-39
-39
-23
-16
-18
-6
2
-4
-4
13
32
46
67
80
60
4
-20
4
6
-39
-64
-53
-48
-55
-50
-55
-73
-85
-101
-16
390
993
1363
1125
323
-263
-214
-108
-205
-212
-147
-154
-166
-136
-115
-108
-97
-87
-73
-55
-46
-30
0
20
27
36
62
69
57
73
108
131
150
177
217
247
263
279
302
305
281
258
226
159
94
53
16
-16
-46
-67
-76
-87
-94
-80
-87
-143
-173
-136
-110
-120
-117
-108
-101
-99
-87
-69
-64
-73
-71
-55
-46
-43
-39
-32
-27
-27
-20
-6
-2
-6
-2
16
27
30
36
43
41
39
48
67
69
62
69
94
104
94
90
94
90
73
62
62
64
62
64
73
85
92
69
48
235
748
1298
1451
959
161
-143
6
13
-69
-36
-39
-83
-64
-39
-48
-43
-27
-25
-34
-48
-41
-25
-20
-11
13
36
46
55
80
106
129
152
173
198
217
221
233
242
212
177
175
157
104
46
-9
-64
-99
-113
-122
-129
-129
-122
-120
-115
-108
-101
-94
-97
-110
-106
-94
-92
-94
-90
-90
-97
-97
-92
-92
-101
-106
-101
-94
-94
-101
-120
-147
-157
-145
-136
-136
-136
-129
-127
-129
-127
-110
-99
-122
-157
-152
-124
-122
-122
-106
-85
-69
-41
-2
16
6
-6
6
27
18
-2
-2
9
11
9
11
23
27
32
20
50
302
792
1192
1164
619
-6
-127
20
-18
-80
-36
-18
-27
-2
13
13
25
43
57
67
67
69
85
101
87
53
48
73
92
104
124
145
157
180
212
231
249
270
272
258
251
247
226
182
120
71
27
-27
-62
-60
-78
-120
-129
-104
-94
-94
-87
-83
-87
-87
-78
-78
-90
-90
-83
-78
-76
-76
-73
-69
-64
-62
-53
-43
-48
-43
-27
-18
-18
-11
-4
0
0
2
11
16
13
20
34
27
2
-16
-18
-13
-6
4
18
16
6
16
36
43
43
46
34
4
-16
-6
13
25
41
69
83
71
64
71
67
43
32
36
41
30
18
25
27
0
-27
-41
57
418
896
1111
832
198
-201
-131
-48
-124
-131
-92
-108
-113
-78
-64
-64
-57
-48
-46
-39
-32
-27
-18
-11
-20
-25
-2
4
-18
-11
20
34
36
67
104
120
134
161
177
180
182
173
138
97
64
34
-2
-30
-36
-36
-46
-57
-62
-71
-83
-85
-85
-83
-73
-67
-64
-53
-46
-50
-43
-46
-76
-97
-83
-69
-76
-78
-57
-48
-53
-41
-20
-20
-25
-16
2
11
11
11
16
25
27
32
34
16
9
30
43
27
6
9
27
39
48
73
106
115
104
94
99
99
92
78
69
64
69
80
87
80
83
92
76
136
466
947
1171
910
309
-94
-53
23
-43
-43
4
0
-2
20
25
25
41
50
43
39
53
64
48
20
25
36
13
-13
-2
25
34
41
62
92
110
124
145
154
157
164
171
147
92
41
6
-39
-106
-154
-168
-184
-205
-201
-180
-173
-177
-171
-154
-145
-138
-122
-106
-101
-99
-87
-73
-69
-78
-99
-94
-78
-78
-73
-67
-71
-67
-50
-48
-55
-48
-41
-41
-39
-36
-34
-36
-41
-36
-23
-18
-27
-34
-39
-53
-78
-64
-23
-13
-27
-39
-48
-48
-39
-43
-53
-50
-46
-36
-27
-36
-48
-27
-20
-34
104
513
952
1063
700
108
-154
-43
-11
-73
-50
-16
-18
2
18
13
23
39
34
30
36
48
64
80
85
78
73
85
106
124
136
145
164
191
208
219
244
258
254
258
270
270
247
205
159
106
53
13
-9
-30
-55
-60
-53
-64
-87
-101
-97
-83
-71
-60
-57
-76
-97
-85
-64
-57
-60
-48
-39
-41
-34
-16
-9
-9
-9
-2
4
11
23
34
34
34
34
32
36
41
41
41
46
57
73
97
115
127
134
134
127
120
110
99
87
78
87
104
101
94
104
120
110
76
168
580
1118
1352
1005
258
-189
-113
-36
-113
-106
-62
-76
-83
-83
-99
-101
-104
-115
-99
-71
-67
-62
-43
-23
-11
2
16
36
55
60
71
90
108
134
150
147
150
171
187
189
175
140
99
50
-11
-64
-92
-115
-143
-154
-152
-154
-166
-182
-184
-171
-166
-159
-138
-131
-136
-129
-113
-106
-106
-104
-104
-115
-117
-101
-85
-83
-83
-69
-48
-46
-53
-43
-27
-23
-18
-18
-34
-50
-34
0
34
60
57
43
43
25
-11
-20
-25
-62
-85
-60
-39
-48
-43
-20
-25
-55
43
452
1012
1301
1021
298
-175
-97
2
-76
-83
-34
-30
-23
-4
0
11
36
50
53
60
69
80
90
104
124
138
131
136
164
180
189
210
233
251
275
295
309
314
316
321
314
281
235
175
101
48
25
6
-9
-16
-13
-9
-4
-6
-4
-9
-30
-64
-78
-69
-64
-62
-53
-43
-43
-41
-30
-27
-32
-30
-18
-9
-11
-13
-16
-27
-41
-48
-43
-43
-55
-55
-48
-60
-87
-101
-80
-53
-32
-16
-16
-36
-48
-36
-32
-48
-57
-53
-41
-36
-36
-23
0
2
-11
-20
64
395
875
1137
901
265
-184
-140
-34
-106
-124
-64
-60
-62
-34
-23
-34
-34
-16
2
13
18
23
34
34
13
11
32
43
48
71
101
124
147
168
184
201
221
240
249
247
231
210
184
147
106
71
50
23
2
4
13
6
4
13
27
32
36
43
48
50
50
60
64
60
62
62
43
34
30
2
-16
-4
4
2
-2
-4
-2
11
16
2
-9
0
6
2
9
13
-2
-18
-20
-20
-20
-20
-11
-2
-18
-32
-20
-23
-39
-36
-34
-53
-64
-60
-55
-57
-55
-41
-20
-9
-32
-43
127
543
924
966
577
9
-210
-78
-39
-108
-94
-55
-60
-50
-23
-9
-4
-2
2
18
34
41
32
16
16
32
43
55
78
92
97
108
120
134
154
175
189
201
214
226
219
208
196
171
129
85
55
27
-18
-62
-62
-46
-50
-53
-39
-30
-48
-67
-53
-36
-46
-41
-23
-30
-60
-62
-46
-50
-62
-55
-53
-62
-67
-60
-57
-60
-53
-46
-43
-48
-48
-43
-39
-43
-43
-34
-36
-53
-83
-108
-113
-106
-97
-80
-62
-71
-92
-97
-92
-101
-122
-134
-127
-117
-108
-92
-76
-71
-67
-67
-73
46
462
973
1162
788
97
-226
-90
-46
-127
-92
-48
-69
-60
-32
-23
-20
-11
-4
-13
-43
-36
-4
6
11
34
50
62
85
108
124
138
159
189
219
235
254
279
284
279
286
288
265
221
157
97
62
30
2
-20
-32
-34
-25
-4
9
11
13
25
34
46
60
69
62
60
69
73
62
50
48
48
43
39
43
46
39
39
50
57
53
50
46
36
34
39
43
43
32
23
27
34
46
64
62
23
-20
-27
-20
-43
-67
-57
-41
-41
-39
-25
-18
-23
-36
-34
124
543
996
1118
700
2
-277
-115
-90
-177
-143
-99
-110
-106
-85
-76
-76
-101
-108
-80
-76
-80
-57
-27
-16
-9
4
23
39
57
76
90
99
117
150
175
182
180
184
196
194
177
154
113
60
13
-11
-34
-57
-67
-73
-83
-83
-69
-57
-67
-97
-108
-83
-71
-80
-76
-73
-90
-106
-101
-99
-124
-150
-152
-138
-131
-124
-115
-108
-101
-90
-76
-64
-67
-69
-50
-34
-41
-48
-41
-48
-62
-50
-34
-30
-30
-16
13
39
43
32
30
32
23
4
-16
-27
-25
-16
-4
-2
-4
11
18
-4
97
478
933
1104
808
208
-143
-62
13
-43
-41
-11
-18
-4
25
30
34
46
46
16
-6
-6
-20
-32
-18
0
16
34
53
71
85
94
120
147
166
177
196
221
231
228
235
231
208
177
150
115
80
50
34
30
23
16
23
27
16
20
39
46
39
30
30
39
36
36
46
43
39
41
46
46
41
36
39
43
41
43
53
50
41
43
39
27
16
6
9
9
-11
-41
-64
-113
-177
-175
-136
-136
-143
-131
-117
-101
-73
-36
-16
-18
-18
-9
0
-4
-16
-25
-30
-23
-9
9
16
16
23
23
20
161
554
963
1051
679
94
-150
-46
-27
-80
-41
-16
-34
-18
4
6
18
36
43
46
53
64
83
97
101
106
110
122
143
161
171
180
194
198
198
201
205
212
221
226
235
242
228
191
152
117
69
6
-16
-13
-25
-32
-16
2
0
-13
-18
-6
0
-2
11
25
13
0
2
-4
-13
-9
-6
-11
-11
-4
2
4
0
-4
-4
-13
-27
-27
-18
-13
-13
-9
-9
-9
-9
-4
2
9
9
9
16
23
34
62
85
85
67
57
62
53
18
-6
-2
6
4
6
20
20
20
23
6
104
508
1044
1282
933
177
-244
-127
-53
-140
-122
-71
-83
-71
-41
-43
-43
-23
-13
-16
-16
0
16
30
43
62
76
80
90
115
136
145
161
187
210
228
244
263
275
270
268
265
235
171
106
62
23
-20
-55
-73
-73
-73
-76
-83
-99
-113
-106
-94
-87
-78
-62
-48
-53
-64
-57
-41
-41
-41
-27
-25
-30
-20
-9
-18
-36
-46
-48
-46
-48
-50
-64
-85
-90
-73
-62
-71
-104
-113
-85
-67
-60
-30
-2
-18
-39
-20
-2
-16
-39
-41
-32
-25
-13
0
9
11
2
-11
87
457
954
1201
926
247
-189
-104
-11
-101
-110
-62
-92
-113
-78
-62
-64
-50
-32
-18
0
11
16
27
36
53
69
78
87
101
124
150
168
177
191
210
228
233
233
240
240
228
214
189
147
99
67
36
-16
-55
-48
-41
-53
-57
-48
-39
-36
-32
-20
-13
-13
-9
-2
-11
-13
-4
6
9
2
-11
-11
-4
-6
-11
-16
-32
-50
-55
-73
-97
-94
-85
-78
-67
-64
-67
-64
-57
-43
-25
0
20
34
32
18
18
30
25
6
-9
-13
-16
-16
-11
-4
4
11
-6
18
263
709
1042
989
515
-20
-140
-16
-41
-143
-180
-168
-145
-136
-129
-108
-87
-80
-64
-43
-39
-36
-16
-6
-13
-13
2
20
32
46
69
90
101
113
129
129
117
127
136
138
140
131
108
78
39
-4
-25
-34
-50
-64
-67
-64
-64
-64
-57
-69
-101
-106
-80
-73
-80
-83
-80
-78
-76
-69
-60
-60
-64
-55
-43
-39
-36
-30
-27
-30
-34
-32
-34
-43
-50
-48
-39
-46
-76
-83
-69
-71
-73
-60
-41
-53
-73
-50
-18
-20
-27
-18
-20
-34
-43
-53
-69
-71
-62
-48
-32
-16
-13
-20
76
432
903
1127
836
191
-171
-60
18
-57
-60
-27
-41
-41
-13
0
4
16
25
34
48
60
76
85
85
94
113
134
150
161
173
189
208
224
244
272
284
284
298
309
305
291
265
214
138
76
57
36
2
-9
4
6
9
27
39
27
20
13
4
9
13
13
18
13
11
13
6
-4
2
11
16
20
20
16
4
-6
-4
9
11
11
23
27
20
0
-16
-20
-32
-50
-46
-13
-2
-16
-23
-13
-2
-11
-30
-34
-32
-27
-16
-6
-11
-6
9
-9
-2
265
808
1241
1171
538
-94
-161
-48
-138
-166
-99
-101
-113
-78
-55
-55
-62
-69
-60
-39
-27
-13
6
16
23
39
60
78
104
127
136
136
152
187
205
219
240
249
244
240
242
235
203
150
106
73
36
9
2
2
-4
-6
6
23
30
25
36
50
53
57
67
69
55
41
36
36
36
36
25
11
11
20
20
11
6
16
23
23
20
23
27
30
16
0
-2
-20
-39
-6
23
-2
-30
-32
-32
-43
-69
-92
-106
-104
-94
-85
-76
-71
-62
-69
-76
90
550
1028
1130
691
23
-221
-85
-73
-145
-113
-85
-101
-80
-48
-48
-48
-32
-11
0
4
11
6
-2
13
41
50
55
71
85
101
122
147
171
189
198
212
231
242
240
231
217
187
134
90
60
25
-4
-9
-2
-4
-11
-9
-2
-4
-4
9
6
-41
-99
-99
-71
-73
-83
-78
-71
-69
-64
-53
-43
-55
-69
-64
-53
-53
-50
-50
-53
-48
-41
-34
-34
-43
-46
-34
-25
-27
-30
-27
-11
11
16
-2
-23
-46
-55
-67
-90
-104
-101
-101
-108
-104
-90
-83
-97
-129
-85
189
628
919
808
279
-226
-265
-136
-173
-212
-180
-175
-173
-145
-124
-110
-117
-143
-138
-101
-83
-78
-71
-50
-27
-9
9
27
39
55
80
104
120
136
159
182
198
208
219
224
214
191
159
117
85
55
32
20
13
11
18
23
23
32
48
57
60
69
73
71
73
83
90
85
76
76
76
53
30
39
48
32
18
20
16
0
-9
-2
6
11
13
18
20
27
30
30
34
30
18
23
25
-6
-36
-18
2
-4
-11
-13
-16
-13
-23
-46
-57
-50
-36
-32
-41
-43
-30
-16
-32
-4
256
734
1086
979
416
-104
-147
-30
-69
-92
-43
-41
-55
-32
-18
-18
0
18
23
30
41
16
-36
-48
-25
-9
0
11
30
48
53
76
108
122
136
159
177
180
182
194
205
194
159
124
90
50
16
0
-16
-50
-87
-85
-67
-69
-73
-57
-41
-46
-62
-71
-69
-64
-60
-55
-55
-62
-71
-69
-64
-67
-73
-85
-92
-90
-85
-80
-78
-80
-73
-57
-48
-46
-32
-16
-25
-39
-41
-53
-50
-30
-23
-30
-23
-23
-39
-43
-41
-41
-50
-60
-57
-43
-39
-36
-32
-23
-4
-18
-27
191
711
1185
1211
658
-25
-180
-20
-46
-101
-60
-53
-60
-32
-50
-92
-76
-46
-55
-46
-13
6
11
23
39
57
73
92
110
122
134
159
189
210
226
247
270
279
281
288
291
268
228
180
115
57
20
-11
-25
-25
-30
-20
-4
-9
-9
13
36
39
41
48
53
55
57
64
64
55
55
55
39
27
32
39
36
32
32
43
50
43
30
32
43
46
43
41
41
43
57
69
69
71
71
55
18
-13
-16
-25
-55
-71
-57
-55
-83
-113
-101
-80
-80
-108
-69
217
728
1093
973
362
-214
-272
-129
-166
-201
-150
-129
-138
-124
-104
-85
-71
-69
-67
-46
-27
-25
-4
18
23
27
55
83
94
101
115
136
157
177
198
203
196
203
221
233
226
203
173
134
90
60
41
25
4
-2
9
18
16
18
25
18
-6
-18
0
6
-2
2
18
20
16
16
2
-25
-55
-62
-50
-46
-53
-48
-36
-34
-34
-23
-18
-23
-11
6
11
4
0
4
4
0
2
13
23
27
30
23
11
2
-6
-18
-30
-43
-43
-34
-30
-30
-20
-6
-13
-27
120
536
966
1051
665
67
-189
-73
-36
-99
-80
-53
-60
-46
-25
-23
-6
4
-32
-62
-30
2
2
0
9
18
16
11
27
50
55
69
92
113
134
159
171
177
182
187
194
184
154
124
99
64
30
16
6
-2
0
9
11
11
9
4
4
13
23
30
34
34
39
43
41
27
6
-2
-9
-36
-60
-48
-43
-53
-48
-39
-36
-34
-30
-27
-23
-13
-2
4
-4
-13
-18
-39
-71
-85
-73
-69
-76
-69
-46
-48
-94
-131
-115
-115
-171
-208
-194
-182
-187
-175
-159
-154
-150
-152
-150
18
462
910
963
496
-120
-298
-154
-168
-247
-210
-171
-177
-157
-122
-110
-108
-87
-60
-41
-32
-27
-9
13
32
46
60
73
90
110
136
154
164
180
203
221
235
254
265
268
263
244
221
194
152
108
78
48
20
18
25
13
4
23
41
20
-13
-6
11
11
13
32
34
18
20
36
36
20
16
20
27
25
11
4
13
13
11
25
36
34
39
48
48
43
48
62
62
55
62
80
85
85
80
64
55
57
48
34
25
23
34
46
43
46
46
16
-18
90
492
1026
1266
926
214
-184
-110
-53
-120
-106
-67
-69
-57
-41
-43
-32
-6
-6
-34
-39
-18
-11
-4
20
43
53
57
71
85
87
97
129
145
124
106
136
164
143
117
120
122
99
69
41
9
-27
-48
-50
-53
-55
-53
-46
-36
-25
-16
-2
9
13
20
32
32
25
34
43
34
23
32
36
25
13
9
-6
-25
-20
-6
-9
-13
-9
4
6
-2
-6
4
18
18
18
27
34
39
55
67
55
25
6
6
-13
-69
-92
-73
-76
-83
-67
-50
-46
-43
-64
-20
268
753
1081
954
383
-127
-150
-23
-71
-108
-67
-57
-64
-43
-18
-9
-9
-9
-2
6
13
23
32
41
50
67
87
99
104
108
101
101
122
147
164
173
184
201
214
212
196
182
166
131
92
60
32
11
2
-6
-16
-23
-20
-9
9
16
18
25
18
-9
-32
-20
-4
-9
-18
-16
-9
-16
-23
-23
-27
-32
-23
-11
-4
-4
-4
4
9
2
9
16
0
-11
4
18
16
9
9
16
30
43
48
32
9
-6
-27
-50
-60
-60
-57
-53
-46
-39
-30
-25
-43
-48
115
522
922
986
603
32
-205
-99
-67
-143
-164
-145
-140
-131
-113
-97
-83
-73
-64
-46
-25
-20
-23
-11
2
-13
-36
-20
6
9
18
46
71
85
99
113
134
147
145
134
127
115
97
73
34
-9
-39
-53
-69
-80
-73
-76
-97
-110
-101
-85
-83
-80
-69
-60
-60
-53
-43
-32
-27
-23
-20
-23
-25
-32
-43
-46
-46
-46
-34
-18
-18
-18
-4
11
13
13
18
20
18
23
48
67
62
71
85
73
46
39
46
20
-32
-55
-34
-32
-43
-41
-43
-50
-34
-39
-34
191
695
1132
1102
538
-80
-180
-27
-64
-108
-48
-46
-92
-85
-48
-34
-32
-18
-2
6
9
27
48
55
57
73
94
101
99
108
131
152
171
194
214
231
244
258
265
270
268
249
212
171
131
97
67
41
27
30
34
32
36
48
50
48
60
76
80
62
48
62
60
20
-4
4
9
6
11
20
20
9
-2
2
6
0
-4
-20
-46
-48
-34
-36
-64
-92
-78
-50
-39
-20
6
16
2
-11
-25
-39
-64
-94
-99
-85
-85
-87
-76
-69
-69
-78
-71
104
552
1007
1070
598
-50
-254
-113
-120
-191
-147
-117
-138
-134
-115
-104
-94
-90
-97
-101
-92
-78
-69
-62
-57
-50
-36
-27
-43
-53
-20
11
18
39
71
97
110
127
124
104
101
106
83
43
2
-20
-32
-55
-71
-67
-71
-90
-78
-50
-34
-30
-20
-4
13
23
27
30
32
34
39
50
62
60
50
57
69
69
73
78
67
53
57
67
64
57
55
62
67
60
57
64
62
57
76
97
108
124
138
136
115
99
97
71
30
16
30
32
27
9
-16
-25
-39
-85
-55
212
667
993
905
385
-131
-201
-78
-113
-157
-108
-87
-99
-85
-62
-46
-34
-23
-6
2
6
23
43
60
64
64
80
106
115
127
147
164
173
191
214
238
249
242
231
231
228
210
187
152
110
80
67
50
36
32
30
9
-25
-30
-6
-2
-6
2
13
18
9
-16
-23
-11
-11
-11
-6
-36
-80
-87
-78
-85
-92
-94
-87
-78
-69
-57
-53
-55
-50
-32
-27
-30
-25
-13
-9
-6
4
16
16
9
6
20
34
39
43
46
34
16
18
11
-27
-48
-39
-30
-25
-16
-6
-9
-9
-20
-2
214
663
1035
1000
508
-41
-152
-16
-36
-90
-48
-27
-34
-23
-30
-46
-25
-4
0
6
11
6
18
39
50
57
69
87
83
60
69
106
115
115
140
168
180
184
198
214
212
196
182
157
113
69
46
34
23
13
13
18
23
20
23
25
20
34
53
55
48
53
62
62
60
62
64
55
30
30
53
53
43
43
43
39
36
41
46
41
23
18
27
16
-2
-6
-6
-13
-20
-20
-13
-6
11
25
13
-6
2
11
-27
-90
-104
-78
-76
-85
-78
-60
-50
-57
-76
16
397
926
1197
915
214
-224
-143
-73
-168
-154
-92
-108
-120
-92
-71
-64
-73
-92
-87
-69
-60
-43
-18
-9
-6
13
41
60
73
87
104
129
154
177
205
217
196
187
198
194
166
143
113
67
30
6
-13
-39
-55
-50
-39
-36
-27
-13
-4
4
16
23
27
27
30
39
39
4
-34
-36
-34
-46
-48
-30
-25
-30
-34
-32
-20
-13
-9
-2
-6
-9
2
16
16
11
6
0
-6
-11
-6
13
30
34
32
23
13
16
6
-16
-25
-18
-6
-13
-43
-62
-46
-39
-73
-20
323
855
1183
996
346
-180
-171
-50
-108
-127
-80
-76
-73
-53
-46
-39
-18
-11
-11
2
23
32
41
53
62
46
13
13
39
53
57
87
117
131
150
173
184
187
194
194
191
173
134
94
62
25
-2
-9
-18
-32
-25
-6
0
0
4
13
20
23
25
13
-25
-53
-48
-41
-46
-46
-43
-46
-48
-39
-25
-18
-32
-34
-11
-2
-6
-2
6
9
9
9
4
-6
-20
-30
-25
-20
-23
-25
-25
-43
-73
-64
-27
-27
-55
-55
-39
-43
-60
-64
-67
-87
-115
-108
-83
-85
-92
-94
-60
191
672
1049
984
434
-138
-219
-76
-120
-173
-117
-101
-124
-115
-113
-138
-143
-120
-101
-94
-92
-87
-71
-57
-53
-39
-23
-18
-11
13
41
53
60
76
101
124
140
159
173
166
157
154
145
113
71
32
9
-2
-11
-6
-2
-4
0
16
27
32
36
43
48
39
34
41
46
36
34
39
25
-9
-20
-9
-9
-11
0
11
11
0
-6
-6
-2
-18
-50
-67
-69
-73
-67
-53
-53
-57
-50
-36
-36
-36
-27
-20
-18
-2
27
53
64
60
50
53
57
53
36
25
25
27
20
9
13
27
39
16
32
288
765
1102
1016
515
-11
-106
13
-13
-55
-13
0
-4
13
23
25
39
46
46
55
64
62
39
23
34
36
25
36
64
78
80
73
76
97
120
136
159
168
161
168
182
173
145
117
85
48
18
6
-2
-43
-85
-71
-43
-43
-39
-23
-13
-20
-27
-20
-9
-13
-16
-9
-6
-9
-4
0
0
-2
-4
2
0
-4
-2
6
6
-9
-20
-18
-39
-62
-55
-41
-48
-60
-60
-57
-55
-57
-67
-83
-115
-145
-134
-120
-122
-138
-147
-129
-97
-76
-55
-48
-62
-67
-46
-48
-67
-62
-53
-53
-41
-23
-6
6
0
-16
71
416
885
1120
866
247
-154
-90
-2
-73
-83
-25
-16
-23
-6
11
23
32
43
57
62
60
69
90
104
104
115
134
143
145
161
184
203
214
231
244
244
242
251
261
254
235
228
214
184
136
78
39
0
-57
-76
-62
-64
-64
-46
-30
-27
-25
-13
-9
-6
-2
9
13
11
11
18
16
2
-13
-13
-16
-32
-32
-13
-11
-23
-20
-13
-13
-6
4
2
-4
4
18
25
27
25
30
34
39
43
50
55
55
53
69
99
115
115
115
106
99
106
104
78
57
60
76
76
48
36
57
67
32
62
376
908
1248
1077
425
-177
-258
-147
-189
-219
-175
-157
-152
-136
-134
-136
-117
-101
-94
-83
-62
-50
-41
-23
-4
-4
4
32
46
53
69
94
115
134
157
177
191
184
184
196
184
152
124
78
9
-41
-73
-115
-147
-154
-138
-122
-127
-131
-110
-90
-83
-73
-57
-55
-73
-85
-83
-90
-106
-101
-90
-94
-94
-80
-71
-69
-62
-55
-48
-36
-32
-32
-32
-57
-94
-94
-71
-64
-67
-60
-41
-30
-20
-6
9
23
41
69
80
69
64
76
80
67
43
46
60
62
62
83
99
92
55
78
390
979
1467
1444
746
-23
-127
48
-20
-87
-25
-11
-25
2
16
0
-18
-16
4
23
36
50
57
67
83
97
113
131
145
152
177
217
238
247
268
293
309
316
323
321
298
256
194
127
50
-18
-53
-76
-97
-101
-97
-97
-92
-76
-55
-46
-34
-11
0
-6
-2
6
-4
-18
-39
-67
-76
-71
-69
-62
-60
-69
-76
-64
-69
-104
-134
-122
-104
-106
-124
-138
-127
-113
-117
-110
-90
-76
-57
-27
-6
-9
-11
0
6
-4
-27
-43
-53
-50
-39
-34
-36
-27
-18
-46
-39
242
832
1358
1382
716
-78
-247
-115
-191
-247
-184
-212
-265
-228
-189
-198
-187
-159
-154
-152
-124
-104
-108
-108
-87
-55
-32
-16
9
46
71
90
117
154
184
198
214
240
258
247
212
184
145
90
48
23
-2
-25
-39
-53
-67
-62
-50
-46
-43
-32
-13
0
4
6
16
23
23
27
39
41
32
32
39
30
18
18
11
-2
-4
0
4
4
0
6
18
-2
-39
-39
-23
-25
-30
-27
-23
-41
-71
-62
-36
-36
-39
-18
-6
-2
20
57
71
57
43
57
69
43
9
4
13
16
25
39
48
53
50
32
140
550
1074
1317
1012
288
-154
-62
18
-69
-69
-16
-23
-25
0
11
11
25
39
48
60
73
85
92
99
108
129
140
143
154
180
201
214
226
224
201
159
134
157
175
159
150
145
115
69
34
4
-20
-32
-36
-39
-48
-64
-60
-43
-55
-76
-69
-60
-62
-55
-41
-39
-48
-50
-46
-57
-73
-69
-62
-71
-78
-85
-94
-99
-113
-127
-120
-115
-120
-113
-106
-120
-127
-110
-99
-101
-101
-90
-78
-78
-73
-60
-50
-53
-48
-30
-11
-11
-23
-18
0
0
4
20
23
-11
-27
6
43
53
55
53
46
46
55
50
34
30
34
34
20
11
23
32
13
9
194
658
1120
1218
778
104
-159
-25
-2
-76
-53
-18
-18
-2
11
9
27
53
50
50
69
78
85
99
115
127
127
129
147
164
173
189
217
231
233
238
244
247
251
254
261
249
214
182
154
106
62
43
34
18
4
2
9
16
20
25
25
2
-23
-25
-39
-64
-67
-64
-78
-94
-87
-80
-101
-115
-101
-87
-83
-78
-71
-67
-62
-60
-50
-34
-30
-34
-27
-11
-6
-6
4
16
13
11
25
32
4
-32
-23
-4
-34
-57
-41
-36
-57
-53
-27
-18
-20
-16
-2
9
16
23
30
25
27
50
85
108
113
97
85
90
92
85
73
62
53
41
30
36
46
48
43
30
150
561
1044
1192
804
138
-182
-83
-43
-113
-92
-48
-55
-41
-16
-20
-18
11
30
18
6
18
30
32
43
62
71
76
87
106
120
131
138
145
164
184
198
214
224
214
208
205
182
140
106
67
18
-11
-20
-34
-46
-50
-46
-41
-39
-27
-16
-11
-18
-30
-30
-20
-23
-30
-34
-34
-30
-25
-23
-39
-69
-73
-50
-46
-55
-48
-34
-30
-27
-9
4
-2
-6
9
20
18
18
27
36
36
43
55
64
62
62
60
46
39
48
50
53
60
60
67
80
73
67
80
94
101
122
147
145
127
122
129
122
97
83
83
83
85
92
87
64
48
27
39
275
769
1178
1137
561
-71
-166
-16
-67
-122
-67
-55
-69
-46
-27
-41
-69
-78
-62
-80
-124
-134
-113
-99
-97
-87
-64
-41
-34
-18
16
34
36
57
92
117
131
150
159
161
168
177
159
113
76
48
11
-25
-43
-53
-53
-46
-30
-16
-11
-16
-6
11
25
23
23
20
-2
-27
-30
-27
-25
-27
-25
-11
-2
-4
-4
2
9
16
20
27
32
32
41
43
39
46
62
48
13
0
16
25
16
16
32
43
48
43
27
18
25
41
71
108
108
87
85
97
87
67
57
57
60
67
69
71
73
57
11
18
307
894
1391
1363
695
-39
-161
-6
-67
-143
-127
-134
-131
-99
-90
-90
-76
-67
-67
-71
-73
-69
-53
-43
-36
-13
4
9
23
50
69
87
113
143
171
194
217
233
240
233
224
217
177
117
78
30
-50
-108
-113
-110
-127
-127
-110
-97
-87
-69
-50
-36
-32
-23
-9
-4
-6
2
13
16
11
16
23
18
16
23
25
27
20
-11
-34
-25
-13
-13
-4
-2
-4
6
9
-20
-53
-48
-27
-25
-23
-6
2
-6
0
23
43
62
83
90
73
57
69
83
67
36
16
16
27
32
34
43
50
27
20
238
760
1275
1391
892
92
-231
-87
-78
-180
-150
-108
-129
-122
-99
-87
-71
-60
-55
-41
-32
-27
-11
-2
-11
-6
0
-6
-9
0
11
25
34
53
85
110
124
136
140
143
145
134
110
76
23
-25
-53
-76
-99
-106
-97
-92
-94
-83
-67
-69
-78
-71
-53
-41
-34
-27
-20
-11
-9
-9
-2
6
0
4
16
18
16
20
20
6
-18
-23
-6
-4
-11
-2
13
11
11
20
25
16
9
16
36
34
4
-6
11
18
13
23
32
30
41
67
90
99
101
99
94
90
90
83
62
53
60
73
73
69
71
80
73
50
152
547
1037
1238
940
286
-124
-62
9
-64
-62
-20
-25
-23
-6
-4
4
18
23
25
25
16
11
23
36
34
2
-11
16
32
30
39
46
43
32
39
76
94
76
69
87
78
43
9
-32
-80
-115
-131
-150
-168
-177
-171
-159
-154
-145
-131
-124
-122
-117
-104
-92
-90
-99
-106
-110
-106
-94
-94
-108
-110
-94
-85
-83
-85
-87
-78
-71
-71
-69
-64
-71
-76
-67
-53
-50
-55
-53
-39
-32
-30
-20
-6
-6
-13
-2
6
-4
-11
-2
2
-23
-48
-39
-43
-73
-67
-32
-6
20
39
34
25
34
50
53
36
20
27
46
55
55
64
76
69
39
80
365
841
1162
1058
522
-16
-99
30
-2
-48
-4
6
-9
2
16
23
39
43
46
62
71
69
69
71
78
80
80
94
108
115
124
145
161
168
180
196
212
217
217
224
224
210
175
104
4
-78
-108
-120
-143
-157
-150
-145
-147
-140
-122
-110
-106
-94
-78
-67
-55
-48
-43
-39
-39
-41
-48
-53
-50
-43
-34
-30
-23
-13
-9
-11
-9
2
18
23
16
18
27
34
39
41
41
43
55
69
73
67
55
53
57
34
2
2
0
-13
-6
13
16
13
20
27
32
30
30
23
25
46
67
71
67
64
69
62
25
-18
-27
-9
-11
-13
9
30
27
0
53
374
869
1155
963
353
-127
-106
9
-55
-73
-25
-39
-62
-41
-25
-16
-4
-4
-2
11
25
36
43
46
57
71
85
99
110
113
124
145
154
145
145
157
171
177
184
187
182
166
143
104
55
-4
-64
-104
-115
-117
-106
-94
-97
-101
-87
-71
-67
-55
-36
-34
-36
-23
-11
-9
-9
-20
-30
-36
-69
-85
-64
-62
-76
-57
-32
-27
-34
-32
-23
-16
-13
-4
9
9
6
18
32
36
32
30
34
39
43
53
64
69
57
41
36
34
41
55
60
64
94
131
134
104
87
101
99
55
27
36
41
30
36
57
55
41
32
39
214
700
1222
1331
827
73
-198
-55
-64
-152
-106
-67
-90
-85
-64
-69
-87
-92
-78
-62
-57
-48
-32
-16
-9
-13
-16
-30
-60
-57
-18
6
13
34
67
92
115
138
154
147
131
127
113
67
11
-30
-64
-106
-136
-140
-143
-154
-147
-129
-140
-164
-157
-134
-120
-113
-106
-97
-94
-99
-92
-80
-73
-73
-69
-71
-73
-78
-92
-90
-87
-94
-87
-69
-67
-64
-57
-57
-57
-46
-34
-25
-25
-25
-9
2
-25
-53
-39
-25
-30
-20
-2
9
11
13
32
71
94
83
64
55
55
55
50
50
48
39
41
57
67
76
85
55
53
309
836
1285
1285
697
-23
-194
-36
-60
-122
-78
-62
-69
-48
-36
-32
-32
-36
-32
-11
11
23
23
30
50
62
60
57
69
80
92
113
136
152
164
187
221
240
242
242
235
198
134
83
46
-6
-57
-78
-97
-129
-136
-117
-113
-115
-99
-73
-55
-53
-46
-30
-20
-18
-2
9
4
0
4
-2
-25
-32
-20
-11
-4
-4
-4
4
11
9
18
32
32
20
25
34
36
41
53
60
53
48
60
62
30
0
4
16
16
23
36
39
36
48
67
90
115
120
104
90
92
97
92
76
53
41
46
36
0
-13
6
-2
-43
34
399
901
1164
954
328
-166
-159
-48
-120
-161
-138
-161
-173
-154
-154
-152
-134
-129
-120
-101
-99
-104
-101
-97
-85
-71
-57
-34
-13
-11
0
25
36
48
78
108
122
129
134
143
143
124
94
64
23
-18
-39
-53
-69
-83
-80
-71
-64
-55
-48
-53
-57
-43
-25
-16
-9
0
4
-2
-25
-39
-27
-18
-23
-18
-2
6
9
11
18
23
18
4
4
13
13
20
36
43
41
46
43
34
34
43
53
57
53
57
71
78
78
90
94
83
87
106
113
104
101
110
117
113
113
127
129
131
157
189
191
168
152
157
154
131
106
104
104
97
101
115
120
117
104
87
198
577
1030
1204
910
302
-73
-11
50
-30
-34
0
-34
-48
-13
-20
-67
-78
-48
-27
-27
-30
-23
-9
-2
0
16
16
-18
-30
-2
6
6
32
64
80
94
117
140
145
140
143
138
108
73
46
11
-32
-55
-55
-53
-64
-78
-78
-76
-78
-69
-48
-43
-50
-41
-16
-9
-18
-13
0
4
4
13
20
16
16
27
34
30
27
32
32
23
11
18
23
-13
-50
-43
-34
-50
-48
-27
-16
-11
-2
9
13
6
11
32
43
46
43
48
55
60
64
73
76
71
71
85
90
87
85
87
90
92
108
136
136
115
106
115
115
99
90
80
71
73
83
90
85
76
71
53
67
307
795
1164
1083
533
-41
-129
6
-32
-99
-83
-76
-76
-60
-57
-64
-55
-46
-46
-57
-67
-60
-62
-87
-85
-62
-78
-101
-78
-48
-39
-20
16
46
67
94
127
147
150
152
166
175
154
110
73
41
2
-41
-67
-76
-87
-106
-120
-131
-136
-122
-101
-94
-90
-71
-53
-46
-43
-34
-20
-16
-18
-13
-6
0
6
16
20
18
4
-16
-36
-62
-85
-90
-90
-92
-83
-64
-48
-48
-46
-32
-23
-23
-13
-2
-20
-55
-62
-43
-36
-36
-30
-23
-25
-23
-13
-4
-4
0
13
23
34
43
50
46
23
9
23
13
-27
-48
-43
-41
-46
-46
-39
-36
-53
-78
0
369
933
1294
1109
390
-205
-194
-64
-147
-177
-120
-124
-143
-138
-152
-157
-136
-127
-115
-97
-90
-80
-53
-32
-20
-4
16
36
57
78
106
136
154
175
212
251
268
270
286
295
258
205
182
145
76
25
4
-20
-55
-83
-80
-64
-62
-50
-34
-34
-32
-16
4
16
18
25
41
48
46
53
62
46
36
50
64
62
60
60
64
71
76
80
87
78
48
27
36
48
46
53
57
55
60
69
73
71
78
92
97
97
97
97
97
101
110
131
152
161
161
152
143
143
140
110
55
16
9
6
-2
2
18
23
-9
6
275
788
1199
1176
633
-16
-173
-34
-53
-106
-76
-73
-90
-106
-143
-150
-120
-110
-115
-97
-76
-73
-71
-48
-43
-76
-83
-48
-25
-11
11
36
62
90
113
140
166
173
177
194
198
187
161
120
69
23
-6
-27
-46
-62
-67
-62
-50
-48
-43
-30
-20
-20
-11
6
13
6
13
25
23
16
27
27
-4
-36
-34
-23
-23
-25
-13
-2
-2
0
9
11
6
16
30
34
34
30
30
43
48
39
23
0
-13
0
13
16
16
18
27
34
41
55
80
99
99
94
90
90
90
73
53
48
50
55
55
53
50
62
57
30
106
450
912
1127
885
288
-143
-124
-39
-90
-99
-64
-67
-64
-36
-30
-27
-13
-4
-9
-2
4
-4
-13
-11
-6
0
11
25
34
18
-6
4
25
32
43
50
53
69
87
99
97
76
48
13
-23
-55
-85
-106
-117
-127
-124
-113
-106
-101
-87
-73
-67
-64
-50
-34
-34
-41
-32
-25
-39
-48
-39
-32
-30
-25
-16
-11
-20
-20
-6
2
-6
-11
-2
-2
-30
-48
-32
-25
-36
-32
-18
-9
-2
0
0
-4
-23
-34
-20
-23
-41
-32
-13
-9
-11
-27
-36
-20
-2
20
55
67
50
43
55
53
32
23
23
20
30
39
43
43
48
55
43
97
395
857
1139
989
434
-64
-101
13
-41
-87
-50
-46
-53
-32
-25
-30
-11
4
2
4
11
23
32
39
50
64
69
76
104
115
106
104
115
131
150
161
164
159
136
106
108
113
69
4
-36
-69
-106
-120
-122
-136
-152
-145
-122
-104
-92
-80
-69
-57
-46
-34
-25
-20
-25
-20
2
11
6
0
-9
-16
-9
6
13
6
6
18
27
36
43
46
41
39
41
48
57
57
55
62
69
69
76
83
76
69
71
80
83
76
73
76
69
69
92
117
117
110
108
110
92
55
32
30
9
-20
-18
0
2
6
20
-2
46
376
905
1245
1088
441
-117
-122
4
-69
-97
-39
-43
-55
-34
-34
-48
-41
-25
-36
-64
-71
-55
-60
-80
-69
-46
-41
-30
0
23
32
46
76
110
134
143
152
157
145
129
131
124
90
32
-25
-69
-110
-140
-152
-161
-168
-166
-175
-198
-203
-182
-161
-154
-152
-143
-129
-150
-184
-182
-164
-187
-224
-217
-194
-194
-194
-175
-161
-159
-154
-145
-143
-136
-124
-110
-94
-85
-73
-57
-43
-43
-36
-16
-2
-2
4
11
18
23
27
36
48
50
55
71
76
73
76
76
78
90
99
94
85
99
134
150
138
127
129
134
120
101
85
69
57
60
71
83
87
80
64
159
522
984
1204
970
360
-83
-43
39
-43
-55
-6
-46
-101
-87
-57
-73
-108
-106
-76
-62
-55
-34
-16
-13
-6
16
36
43
46
53
62
71
90
117
140
150
166
189
201
196
189
177
154
115
62
23
-2
-32
-48
-43
-39
-36
-30
-27
-20
-18
-27
-34
-25
-18
-16
0
11
9
16
23
20
23
36
41
34
30
32
41
48
46
34
27
6
-18
-4
16
9
4
16
16
-13
-34
-20
-16
-20
-11
4
6
2
4
13
20
20
23
32
32
27
39
50
43
30
25
18
11
13
18
20
13
13
20
25
23
20
18
13
4
-16
-16
-2
6
30
50
32
0
0
16
9
-9
-11
-2
-6
-13
-6
4
-4
-18
-23
64
390
825
1051
875
328
-136
-154
-57
-117
-143
-94
-97
-138
-143
-120
-108
-110
-97
-69
-53
-53
-41
-20
-11
-6
11
32
41
46
64
90
110
127
154
180
194
210
228
242
254
258
247
226
184
124
90
71
34
4
6
11
4
4
13
20
27
36
48
55
55
55
67
73
60
55
62
64
64
71
80
78
69
73
90
97
92
80
76
76
83
92
97
87
78
80
87
67
36
36
46
36
30
25
25
27
27
34
43
50
60
69
67
57
60
67
73
78
73
55
27
11
23
30
18
6
11
25
13
-20
-23
20
48
43
34
18
4
4
2
-6
-20
-46
-60
-46
-34
-39
-32
-34
-39
154
647
1102
1134
624
-36
-221
-69
-78
-136
-92
-78
-94
-64
-41
-36
-25
-25
-57
-85
-73
-48
-60
-87
-76
-43
-30
-11
18
36
50
69
94
127
154
168
187
196
187
194
219
212
177
150
127
87
34
-9
-27
-34
-48
-57
-53
-55
-55
-34
-11
-4
-2
9
23
34
36
36
36
34
32
34
39
41
39
41
50
53
48
53
57
46
41
60
76
71
60
57
64
60
55
67
67
25
-6
2
6
-4
-2
9
13
9
11
20
23
18
20
9
-16
-13
11
13
11
36
69
69
39
13
-4
-18
-32
-46
-46
-43
-46
-39
-23
-9
-13
-43
2
318
850
1234
1146
522
-106
-173
-23
-78
-127
-73
-60
-69
-50
-27
-18
-11
-4
0
2
4
9
16
30
46
57
71
92
104
113
138
164
180
196
214
228
221
205
217
228
189
140
110
62
4
-32
-62
-94
-115
-120
-122
-129
-143
-134
-106
-92
-83
-67
-53
-46
-36
-25
-11
-11
-16
-4
6
2
2
11
13
13
16
20
25
25
20
27
36
36
39
46
43
30
30
43
53
48
48
53
55
48
43
46
39
32
39
48
46
43
48
50
50
46
50
64
64
62
71
71
64
53
27
18
16
-16
-50
-64
-104
-143
-127
-104
-110
-113
-115
-108
85
540
963
1023
610
-4
-242
-122
-106
-173
-143
-108
-117
-97
-64
-62
-62
-43
-18
-11
-9
-6
-9
-4
13
34
48
55
64
85
110
127
145
168
191
208
228
249
261
258
254
251
240
210
168
134
97
50
4
-16
-18
-25
-30
-27
-32
-32
-9
4
-20
-53
-41
-18
-18
-20
-11
-4
-6
-2
9
9
2
4
16
23
20
23
30
30
30
36
46
50
46
46
55
50
32
30
41
48
50
55
62
48
6
-11
13
27
16
20
30
30
36
55
76
92
101
101
94
83
71
60
34
-6
-30
-18
-6
-18
-32
-25
-13
-34
-18
217
656
984
942
487
-57
-219
-127
-150
-219
-226
-219
-217
-219
-219
-201
-182
-175
-175
-171
-157
-143
-131
-113
-90
-80
-76
-62
-43
-27
-6
18
46
71
99
127
152
161
171
189
201
191
168
136
99
64
32
13
0
-13
-13
-2
6
11
16
20
11
-2
-4
-2
2
4
13
27
30
30
36
41
34
36
50
57
50
41
50
64
64
67
78
64
25
2
16
27
20
16
30
36
34
39
41
25
20
39
50
50
50
55
62
67
71
80
85
85
94
122
147
152
138
122
124
129
110
92
90
85
83
90
99
106
106
73
27
161
575
982
1049
667
87
-159
-60
-34
-99
-83
-55
-67
-60
-34
-30
-32
-18
-2
2
9
20
20
13
16
20
20
20
20
34
57
67
71
83
87
53
13
36
73
71
64
76
71
36
0
-32
-69
-99
-110
-110
-113
-120
-115
-101
-92
-85
-69
-55
-57
-57
-46
-39
-41
-46
-69
-104
-110
-94
-85
-83
-87
-92
-87
-80
-71
-67
-71
-78
-78
-76
-67
-55
-57
-62
-50
-36
-39
-34
-23
-18
-23
-16
2
6
-2
-6
-6
-6
11
41
67
78
69
57
73
83
55
32
36
20
-4
-2
4
0
11
32
20
55
355
892
1257
1095
443
-97
-101
9
-60
-76
-27
-53
-94
-83
-64
-64
-46
-23
-25
-27
-9
13
25
34
41
57
76
92
106
127
134
134
152
184
194
191
210
231
228
221
221
208
157
99
64
32
-11
-50
-64
-64
-67
-71
-67
-55
-43
-34
-18
-4
4
9
13
-2
-36
-48
-30
-20
-27
-25
-16
-9
-9
-9
-6
-2
-4
-2
11
4
-23
-18
2
-2
-6
9
13
11
20
34
48
50
43
36
46
60
71
97
120
120
101
94
85
46
6
0
-16
-60
-80
-69
-60
-57
-41
-39
-71
36
478
1058
1345
1026
251
-219
-134
-62
-147
-136
-94
-108
-99
-73
-71
-64
-41
-43
-83
-97
-69
-60
-64
-62
-76
-85
-62
-36
-23
-25
-41
-25
25
60
78
97
117
136
143
145
147
127
76
18
-30
-73
-117
-152
-173
-184
-180
-168
-159
-152
-136
-117
-122
-129
-110
-85
-76
-71
-57
-53
-53
-46
-36
-32
-30
-25
-16
-4
-6
-11
-4
13
23
25
27
27
32
43
50
53
53
55
69
76
67
57
62
60
27
6
18
-4
-60
-55
0
25
18
11
16
25
27
18
13
13
13
23
36
46
50
55
53
32
140
554
1081
1317
989
270
-150
-60
9
-69
-62
-23
-39
-30
2
6
4
23
39
43
50
67
73
71
83
104
117
120
124
143
154
154
168
194
205
219
238
240
240
247
244
231
208
171
115
43
-34
-97
-115
-115
-131
-147
-152
-168
-201
-212
-187
-171
-173
-166
-145
-129
-122
-115
-108
-106
-101
-97
-101
-113
-110
-99
-92
-94
-92
-80
-71
-69
-67
-60
-53
-48
-50
-48
-32
-25
-32
-25
-18
-23
-23
-13
-9
-13
-18
-16
-16
-16
-13
-11
-27
-48
-48
-34
-30
-30
-27
-20
-13
-16
-23
-30
-23
-18
-13
2
16
18
36
69
57
-9
-46
-27
-16
-20
-23
-20
-18
-16
-6
4
9
6
18
20
2
122
524
989
1160
855
238
-129
-57
13
-43
-43
-11
-16
-6
20
27
23
23
25
32
46
60
64
60
69
92
108
113
110
120
136
150
168
196
214
226
238
240
226
203
191
182
164
138
110
71
27
-6
-23
-32
-50
-60
-48
-41
-43
-32
-13
-6
-11
-13
-16
-27
-57
-67
-48
-62
-106
-106
-78
-94
-129
-127
-101
-97
-94
-78
-67
-64
-55
-34
-25
-25
-13
-2
2
9
18
30
39
39
41
43
34
25
34
46
48
50
55
62
46
11
9
13
-30
-73
-57
-36
-46
-48
-27
-9
-6
-9
-2
13
25
30
36
39
36
41
53
53
43
55
85
97
85
71
71
60
9
-34
-36
-39
-50
-48
-39
-36
-34
-39
-55
41
402
850
1042
778
175
-217
-159
-78
-145
-150
-115
-143
-168
-154
-138
-134
-127
-110
-92
-80
-71
-50
-32
-25
-11
-6
-30
-30
9
32
43
69
97
122
150
171
191
219
235
238
240
242
226
187
134
92
62
20
2
9
9
6
11
13
13
27
43
53
57
57
69
71
36
13
30
36
25
34
48
53
50
48
53
57
60
62
53
36
41
55
64
71
71
73
83
87
90
101
108
97
78
64
57
60
62
60
64
73
83
90
87
83
83
83
76
73
76
67
48
41
48
64
80
94
110
110
94
85
90
85
62
55
69
71
55
34
30
34
30
0
11
270
767
1144
1086
524
-122
-249
-87
-120
-191
-152
-129
-145
-152
-159
-143
-117
-113
-110
-83
-57
-53
-41
-16
-2
-6
-11
-6
18
46
62
85
110
138
168
198
217
233
256
281
284
256
214
182
140
90
55
27
-9
-36
-34
-20
-23
-30
-18
2
9
11
27
39
36
41
60
64
57
57
60
62
64
64
64
62
50
36
34
25
-9
-18
-2
-2
-6
9
18
11
11
23
32
32
34
36
25
16
9
-11
-18
-13
-16
-9
9
13
11
27
53
69
73
62
46
43
43
20
-9
-27
-27
-27
-34
-36
-32
-20
-41
-48
182
737
1259
1338
781
-9
-261
-94
-94
-168
-122
-97
-113
-92
-67
-57
-48
-50
-60
-48
-25
-11
0
13
20
18
6
6
41
64
71
99
136
161
191
226
249
261
258
254
258
254
210
154
108
57
6
-20
-43
-76
-87
-71
-60
-62
-55
-39
-25
-18
-11
2
13
18
25
36
46
46
39
41
46
48
50
48
46
43
43
41
23
-9
-18
-4
0
-2
-4
-4
-25
-55
-53
-36
-32
-32
-25
-20
-20
-16
-2
13
23
36
55
53
39
36
36
11
-27
-43
-39
-62
-106
-117
-94
-87
-99
-134
-113
168
684
1067
1000
420
-212
-318
-161
-194
-247
-194
-182
-212
-198
-182
-187
-180
-166
-157
-134
-117
-106
-92
-80
-71
-53
-34
-16
0
16
34
46
67
99
131
150
168
194
214
217
210
191
164
131
92
60
36
2
-25
-23
-11
-13
-13
-16
-36
-46
-25
0
2
-23
-48
-32
-20
-36
-34
-18
-16
-16
-4
4
6
4
9
18
20
25
32
34
39
43
53
64
64
57
64
76
78
76
80
85
85
87
97
104
97
85
92
101
97
92
99
101
101
113
138
161
168
154
140
143
140
124
108
97
92
99
110
115
104
76
64
57
53
233
674
1074
1120
709
101
-140
-25
-11
-85
-83
-92
-120
-106
-101
-108
-87
-71
-73
-64
-46
-48
-73
-85
-67
-48
-48
-36
-6
16
27
41
55
67
73
78
87
99
101
106
113
110
90
57
16
-30
-64
-87
-106
-122
-134
-131
-117
-115
-113
-101
-94
-97
-90
-80
-71
-71
-87
-101
-92
-83
-87
-97
-108
-115
-108
-97
-92
-97
-94
-78
-71
-71
-60
-43
-57
-90
-92
-67
-60
-60
-48
-32
-27
-23
-6
4
0
-2
20
41
43
41
46
41
32
32
48
55
53
57
71
80
78
76
83
92
92
92
99
104
101
108
124
124
122
134
150
168
177
177
175
166
143
120
110
99
87
85
83
85
92
101
108
87
87
309
785
1176
1148
651
41
-127
2
-4
-55
-27
-18
-30
-30
-48
-64
-41
-34
-67
-71
-43
-30
-41
-57
-48
-41
-46
-32
-11
-4
9
41
73
90
104
127
161
187
189
201
214
210
194
171
129
78
41
16
-13
-39
-43
-34
-41
-64
-69
-64
-62
-55
-46
-39
-23
-16
-11
2
2
-6
-2
9
-4
-41
-48
-30
-32
-34
-20
-13
-23
-20
-6
2
-2
4
18
11
-25
-50
-50
-53
-69
-69
-53
-36
-32
-32
-34
-39
-34
-20
-13
-13
-11
-11
-13
-13
-13
-2
9
4
-6
-6
-6
-11
-11
-2
20
46
60
57
41
9
-6
9
2
-34
-43
-27
-18
-16
-11
2
13
-11
-25
171
686
1224
1368
887
94
-221
-53
-25
-127
-113
-83
-101
-97
-76
-71
-64
-50
-48
-48
-27
-13
-13
0
23
36
46
64
67
48
39
69
110
131
152
191
231
242
254
275
281
265
247
210
150
94
53
18
-9
-25
-50
-85
-106
-104
-85
-69
-55
-43
-34
-20
-2
9
20
27
23
25
36
36
34
39
43
43
46
55
57
53
48
55
64
69
69
64
50
41
43
55
67
71
67
69
78
80
78
83
85
83
87
94
101
104
99
97
94
73
32
18
25
16
11
32
57
76
83
80
57
36
32
6
-48
-94
-108
-92
-76
-80
-87
-83
-76
-108
-101
173
702
1123
1116
566
-122
-300
-140
-152
-212
-166
-136
-140
-120
-101
-87
-71
-69
-67
-48
-32
-25
-11
11
27
32
43
69
94
101
108
136
166
187
214
244
265
277
288
302
307
288
254
212
157
73
11
-4
-25
-60
-76
-64
-55
-67
-80
-73
-64
-57
-39
-18
-16
-18
-6
6
11
13
23
25
23
23
25
32
36
34
41
48
41
39
53
57
53
46
43
43
39
36
46
57
57
62
67
64
60
64
76
80
78
73
71
62
55
62
64
50
41
53
62
60
53
55
62
60
57
55
34
-2
-25
-13
-9
-36
-64
-76
-73
-62
-36
-9
-6
-27
-30
-13
-13
-34
-50
-53
-48
-43
-34
-23
-18
-20
-32
-36
117
538
979
1102
753
124
-212
-115
-55
-131
-117
-67
-73
-71
-41
-34
-34
-18
-2
11
20
18
30
53
62
69
83
87
92
108
129
120
97
101
136
154
161
182
203
205
201
205
205
180
117
50
13
-34
-99
-115
-110
-124
-127
-108
-99
-97
-87
-78
-69
-64
-55
-41
-39
-41
-36
-27
-20
-30
-43
-50
-48
-48
-48
-46
-48
-62
-67
-55
-53
-60
-60
-55
-53
-46
-36
-30
-32
-34
-23
-6
-4
-4
6
9
9
18
25
18
6
-2
-9
-9
-4
2
11
6
2
11
23
16
-2
-4
11
16
11
18
27
4
-39
-50
-43
-48
-55
-50
-43
-46
-46
-32
-25
-32
-25
-11
-9
4
30
34
23
18
27
34
20
0
0
11
16
18
25
36
36
18
101
434
875
1111
947
406
-67
-90
18
-34
-64
-16
-9
-25
-23
-20
-9
16
25
25
36
48
48
57
69
62
41
46
67
80
94
115
136
152
168
194
224
247
256
263
281
284
263
249
228
182
122
85
62
16
-41
-60
-48
-67
-101
-94
-69
-69
-64
-41
-27
-25
-25
-16
-11
-34
-62
-53
-48
-85
-108
-87
-80
-108
-115
-97
-87
-92
-87
-76
-83
-99
-87
-62
-55
-55
-48
-41
-36
-30
-32
-48
-57
-55
-46
-27
-18
-13
-4
-2
-11
-18
-16
-16
-30
-39
-34
-23
-18
-20
-32
-39
-41
-34
-18
-6
-4
2
20
32
20
6
11
6
4
18
20
2
-9
2
18
20
18
34
55
30
55
351
878
1250
1141
531
-80
-154
0
-39
-78
-34
-30
-34
-9
2
6
20
34
43
36
34
46
48
50
67
80
92
113
138
152
159
180
210
228
235
261
293
295
291
305
312
295
277
249
208
157
108
73
48
23
2
0
-4
-25
-36
-25
-16
-23
-16
4
18
16
16
23
23
20
27
41
39
23
16
23
16
-4
0
13
6
-2
6
18
16
9
11
23
18
0
-2
2
-4
-4
13
23
9
-4
-13
-25
-34
-32
-20
-16
-20
-23
-4
27
36
25
13
11
6
-2
-6
-11
-20
-13
0
-11
-43
-46
-43
-71
53
524
1107
1363
1009
217
-251
-175
-134
-217
-191
-157
-175
-164
-138
-140
-145
-120
-97
-92
-80
-60
-57
-62
-41
-11
0
2
13
34
43
39
48
80
104
124
157
177
194
208
205
194
177
138
87
23
-41
-85
-106
-124
-134
-127
-115
-106
-101
-94
-73
-55
-48
-41
-30
-16
-6
2
6
11
16
20
30
30
18
16
30
41
43
43
36
30
30
39
46
30
0
0
13
11
13
30
30
20
25
43
57
53
41
36
23
18
46
62
43
30
36
41
27
9
0
2
11
9
4
13
23
9
-20
55
427
952
1231
1007
325
-203
-184
-73
-159
-187
-124
-113
-120
-99
-85
-76
-67
-55
-36
-20
-23
-18
2
25
30
20
18
32
50
71
92
104
99
104
136
168
182
196
212
217
210
198
182
143
87
27
-23
-55
-67
-76
-78
-76
-73
-62
-43
-36
-39
-32
-32
-32
-23
-13
-23
-50
-71
-57
-50
-85
-113
-99
-87
-92
-80
-62
-62
-69
-62
-41
-30
-34
-36
-27
-20
-20
-13
-2
0
-4
2
2
-16
-25
-16
-9
-9
-11
-9
-4
-4
2
30
55
55
36
25
23
16
-2
-13
-32
-78
-113
-117
-113
-106
-94
-94
-120
-57
284
792
1088
905
295
-198
-198
-90
-145
-168
-134
-136
-127
-94
-90
-90
-64
-46
-46
-39
-16
-4
-2
9
27
46
57
67
83
104
110
115
131
143
145
154
171
184
184
184
189
180
152
120
87
43
-2
-23
-27
-36
-43
-41
-32
-23
-18
-9
2
-2
-18
-18
0
4
4
11
9
-20
-57
-62
-60
-92
-110
-90
-76
-80
-76
-60
-50
-43
-32
-13
-9
-16
-4
16
20
18
25
34
36
39
48
55
55
57
64
73
78
80
78
69
60
62
76
87
87
83
92
97
94
97
108
117
129
154
180
175
150
140
150
140
115
108
108
78
48
64
83
57
9
-25
41
348
799
1074
926
342
-189
-221
-90
-143
-182
-127
-113
-122
-104
-85
-90
-101
-92
-69
-57
-48
-34
-30
-27
-18
-2
13
20
30
46
67
76
83
97
117
129
129
134
134
122
108
94
73
41
-2
-46
-83
-110
-127
-131
-131
-138
-140
-124
-106
-104
-97
-83
-97
-117
-99
-73
-64
-64
-71
-67
-50
-43
-34
-23
-25
-34
-25
-9
-2
0
4
13
2
-25
-23
-6
-11
-13
11
30
27
20
30
43
50
55
64
71
71
67
60
62
71
76
80
87
90
90
94
104
104
104
113
117
115
120
131
136
143
166
191
191
168
157
166
159
134
115
94
73
73
80
69
57
55
39
85
395
922
1278
1120
459
-108
-115
16
-55
-92
-36
-30
-41
-18
0
-11
-36
-39
-18
-4
-4
4
18
23
23
27
25
11
9
34
62
73
90
110
134
159
184
203
214
219
224
228
210
173
127
83
39
2
-25
-36
-48
-80
-106
-92
-73
-69
-69
-80
-90
-85
-76
-60
-50
-60
-60
-41
-32
-30
-30
-30
-23
-13
-9
0
2
-6
-9
-2
0
6
13
11
6
11
18
27
18
2
9
25
25
11
2
-11
-46
-67
-48
-39
-55
-57
-46
-43
-36
-23
-13
-6
16
57
73
60
53
64
67
53
43
50
53
50
41
43
55
50
2
-20
224
776
1285
1354
769
-25
-235
-46
-64
-145
-97
-69
-83
-67
-55
-57
-53
-53
-43
-20
-11
-11
2
16
20
30
48
73
90
94
108
127
138
154
194
226
247
265
288
305
305
279
247
212
145
57
4
-23
-53
-64
-62
-60
-57
-55
-41
-20
-16
-13
6
20
23
34
48
39
13
-6
-9
-4
-4
2
18
18
9
11
23
32
36
34
34
39
46
53
60
57
55
64
76
76
73
73
78
85
87
85
87
80
69
76
90
90
97
120
143
150
145
134
127
124
115
94
62
30
20
16
-16
-50
-46
-32
-67
-16
344
910
1273
1123
443
-164
-194
-64
-138
-177
-140
-154
-157
-134
-136
-140
-129
-127
-127
-110
-90
-78
-73
-67
-48
-32
-18
-2
13
23
41
71
101
124
147
168
189
208
214
214
201
180
152
120
78
34
-2
-30
-43
-57
-67
-55
-43
-48
-43
-20
-4
-2
4
13
23
30
36
41
46
39
41
48
34
-2
-20
-20
-36
-46
-30
-27
-50
-67
-53
-36
-36
-32
-23
-23
-20
-9
4
11
11
6
13
30
32
32
39
43
46
48
57
60
55
57
67
62
53
57
69
69
76
99
124
136
124
108
108
117
106
87
80
73
69
80
92
83
64
57
41
69
337
818
1169
1102
568
-18
-143
-25
-67
-122
-85
-108
-147
-127
-129
-166
-157
-134
-136
-140
-129
-115
-110
-101
-83
-71
-64
-55
-34
-11
4
23
50
71
87
115
140
157
166
161
152
145
129
94
60
9
-60
-113
-117
-122
-164
-187
-166
-159
-191
-194
-161
-152
-152
-124
-99
-94
-92
-80
-69
-67
-69
-57
-46
-46
-48
-48
-55
-57
-55
-53
-53
-48
-50
-69
-94
-124
-147
-138
-120
-122
-127
-117
-104
-99
-97
-87
-85
-90
-87
-73
-62
-62
-60
-53
-43
-41
-36
-25
-30
-39
-25
-2
6
9
20
30
32
34
46
60
64
64
87
127
145
136
131
131
131
127
117
108
99
85
76
80
87
92
94
69
99
388
880
1211
1077
487
-48
-87
16
-62
-108
-62
-62
-78
-57
-50
-64
-67
-55
-67
-94
-85
-60
-57
-53
-32
-20
-16
0
27
55
69
76
92
120
145
166
196
221
228
233
242
244
228
201
168
124
78
46
30
11
-4
0
6
6
11
25
36
39
36
43
60
62
53
46
43
41
43
50
55
53
46
53
60
53
32
13
16
23
30
32
34
34
36
46
53
53
53
64
67
57
57
69
73
64
55
43
4
-57
-76
-55
-53
-57
-43
-25
-16
-9
18
48
53
43
46
50
36
18
20
25
9
-6
-4
-4
-4
2
-9
-23
166
674
1201
1308
783
-2
-279
-120
-117
-205
-168
-138
-171
-175
-159
-175
-198
-187
-175
-182
-175
-150
-136
-134
-124
-104
-73
-57
-48
-23
6
25
50
94
134
145
157
191
221
228
233
238
203
124
57
25
-16
-67
-90
-90
-94
-99
-90
-76
-69
-60
-39
-18
-9
-2
6
16
20
32
43
48
43
32
27
34
39
39
39
41
39
50
67
69
57
57
67
60
34
34
46
41
41
55
69
71
67
64
71
78
87
97
99
115
138
143
122
110
110
115
108
87
78
80
80
73
76
83
80
60
20
94
473
1005
1301
1088
385
-184
-164
-30
-106
-131
-78
-71
-78
-55
-41
-48
-64
-69
-60
-53
-55
-53
-46
-32
-20
-9
6
25
32
36
57
69
60
76
115
143
157
168
182
182
147
99
80
57
6
-39
-73
-110
-136
-136
-129
-124
-120
-106
-87
-76
-60
-41
-32
-27
-16
-4
6
11
9
13
23
20
18
25
25
0
-25
-13
6
-2
-11
4
16
9
4
13
20
16
23
41
48
48
50
57
64
62
67
76
73
69
64
57
69
90
92
80
76
76
78
69
46
36
48
64
67
57
46
48
41
23
145
547
1019
1201
908
275
-129
-73
-6
-87
-94
-48
-50
-55
-39
-30
-18
-4
0
6
13
16
20
34
55
62
55
46
43
27
-2
-9
11
27
43
73
101
115
120
129
136
131
115
90
53
6
-41
-83
-99
-110
-124
-120
-110
-113
-101
-85
-80
-78
-64
-57
-64
-67
-60
-50
-43
-36
-27
-20
-25
-25
-11
0
2
2
6
11
13
18
27
32
30
25
32
41
43
43
48
55
55
53
64
64
46
46
62
64
60
64
67
62
60
64
73
67
39
41
69
60
16
2
16
0
-36
-46
-34
-41
-55
-41
-25
-23
-18
-20
-36
76
450
885
1049
769
177
-184
-113
-41
-106
-104
-62
-69
-67
-36
-23
-23
-16
-2
11
16
20
23
18
16
32
53
57
57
71
92
110
120
127
145
164
182
201
217
224
224
212
187
150
106
57
16
-25
-57
-67
-69
-80
-90
-87
-108
-159
-168
-138
-145
-182
-175
-143
-136
-134
-131
-143
-143
-127
-117
-108
-101
-101
-90
-67
-62
-62
-55
-48
-46
-41
-27
-13
-9
-11
-2
11
13
18
30
34
30
32
53
64
53
43
53
50
50
71
97
108
113
108
104
106
106
85
67
67
69
64
73
78
78
87
87
60
147
522
1019
1234
922
249
-161
-117
-78
-143
-122
-99
-115
-101
-76
-73
-64
-36
-20
-25
-16
13
25
20
32
50
60
69
76
83
92
108
124
147
168
182
205
228
235
242
254
261
238
187
134
99
62
20
-11
-57
-120
-154
-147
-143
-175
-196
-175
-159
-157
-143
-131
-136
-134
-124
-115
-110
-117
-136
-138
-124
-124
-122
-113
-113
-117
-120
-122
-124
-124
-115
-108
-131
-164
-152
-134
-143
-140
-120
-113
-113
-108
-106
-97
-83
-64
-41
-20
-20
-32
-39
-34
-34
-48
-62
-60
-43
-34
-39
-48
-41
-25
-27
-39
113
575
1093
1250
838
127
-189
-64
-39
-113
-73
-39
-57
-34
-2
-2
0
23
36
32
20
30
53
57
62
76
71
67
87
115
129
131
143
164
189
210
233
254
240
194
175
191
177
131
87
53
18
-11
-30
-41
-57
-73
-71
-67
-78
-80
-67
-57
-62
-64
-53
-43
-48
-48
-32
-23
-20
-18
-16
-20
-18
-9
-2
-4
-9
2
16
18
16
20
23
20
23
32
39
23
0
11
34
32
20
18
25
32
41
60
87
101
101
94
92
94
94
78
55
46
55
69
78
76
73
83
67
9
90
485
963
1148
855
238
-143
-87
-30
-113
-131
-120
-131
-115
-99
-94
-76
-50
-43
-39
-27
-18
-11
-2
16
30
36
43
67
83
90
104
124
134
140
154
173
166
138
134
138
120
97
76
36
-11
-50
-73
-92
-108
-127
-131
-122
-117
-127
-134
-140
-145
-138
-127
-120
-120
-120
-113
-101
-97
-92
-83
-87
-120
-138
-120
-127
-173
-187
-157
-154
-182
-182
-154
-143
-140
-124
-104
-90
-83
-73
-60
-46
-36
-25
-11
-9
-2
16
25
20
23
39
55
67
90
120
115
67
36
57
73
53
39
46
53
55
60
73
85
87
83
73
161
501
959
1174
947
376
-36
-11
76
2
-16
41
43
30
46
57
64
69
67
73
83
80
90
110
117
122
136
138
113
94
115
143
147
159
196
224
233
244
249
247
240
235
231
208
161
117
92
67
34
4
-20
-39
-36
-27
-20
-16
-9
-6
-6
-11
-23
-27
-25
-27
-32
-23
-13
-11
-13
-16
-20
-20
-16
-16
-23
-46
-67
-53
-34
-34
-32
-34
-48
-48
-30
-16
-9
-9
-4
9
16
20
27
27
32
41
57
78
97
106
115
110
73
39
36
32
9
6
27
39
30
25
43
53
18
-32
73
492
998
1178
825
154
-191
-83
-27
-101
-85
-36
-34
-36
-23
-6
11
27
30
32
48
62
67
80
97
101
106
124
145
159
164
168
187
212
233
256
275
284
295
305
295
275
249
217
166
113
73
46
16
-11
-20
-13
-6
-6
-2
4
-6
-34
-41
-32
-36
-53
-67
-76
-78
-94
-117
-117
-129
-161
-159
-143
-143
-138
-124
-120
-115
-97
-80
-80
-83
-73
-57
-46
-43
-41
-27
-16
-20
-18
0
11
23
41
57
62
50
32
39
50
36
23
27
23
20
41
55
55
57
55
34
108
471
991
1271
1021
348
-117
-67
23
-60
-69
-16
-23
-27
-4
-20
-64
-71
-46
-34
-43
-50
-41
-43
-67
-67
-34
-11
-9
4
32
36
20
34
64
67
57
76
101
85
48
39
27
-30
-94
-115
-140
-191
-212
-201
-196
-201
-196
-175
-157
-147
-131
-113
-101
-94
-80
-69
-71
-78
-87
-92
-87
-85
-78
-71
-71
-73
-64
-55
-53
-48
-41
-30
-25
-30
-27
-16
-18
-20
-6
2
-16
-27
-16
-13
-39
-60
-41
-25
-30
-16
27
55
57
55
50
53
53
46
39
34
34
46
57
62
62
57
39
20
124
496
961
1153
878
281
-101
-48
27
-32
-41
-6
-11
-4
23
32
30
43
62
64
71
85
87
83
94
108
120
129
129
124
129
143
161
182
198
210
228
244
238
217
214
212
180
138
108
71
2
-62
-76
-73
-83
-85
-73
-67
-62
-55
-43
-30
-25
-23
-13
-23
-43
-46
-48
-67
-71
-60
-55
-55
-60
-57
-48
-41
-39
-36
-30
-27
-27
-18
-6
-6
-9
0
11
13
16
23
30
30
36
43
41
30
25
34
46
50
60
83
104
108
101
92
69
18
-20
-23
-25
-36
-23
-6
-9
-4
9
18
2
11
212
640
1003
1003
584
41
-147
-41
-39
-97
-85
-94
-110
-80
-62
-62
-43
-25
-20
-16
2
20
27
34
48
62
71
80
99
113
117
134
161
180
196
212
224
228
226
219
212
203
171
129
97
64
27
4
-9
-23
-36
-34
-39
-69
-83
-62
-41
-39
-32
-20
-16
-16
-13
-11
-16
-30
-48
-48
-41
-43
-50
-60
-73
-73
-60
-48
-50
-55
-53
-41
-48
-80
-92
-69
-64
-73
-62
-41
-34
-32
-25
-16
-13
-13
0
13
11
4
16
30
32
39
43
50
64
80
85
69
57
62
62
46
34
43
46
46
57
67
57
20
-11
101
485
954
1139
832
210
-150
-69
2
-53
-50
-25
-30
-18
-4
-11
-4
11
13
20
36
48
53
60
73
83
90
101
117
117
97
87
113
140
152
161
184
201
198
203
217
210
187
161
134
97
48
2
-25
-55
-108
-122
-97
-97
-108
-87
-64
-69
-80
-78
-73
-83
-87
-99
-134
-147
-129
-110
-104
-106
-101
-94
-87
-76
-64
-60
-62
-62
-62
-64
-60
-53
-46
-41
-36
-30
-18
-4
2
2
9
25
25
25
39
60
76
94
106
101
92
90
90
69
20
-11
6
18
-18
-46
-30
-23
-53
-36
217
741
1190
1174
603
-62
-194
-34
-57
-115
-71
-50
-60
-39
-27
-46
-46
-23
-9
4
25
32
34
46
62
78
92
110
117
108
120
154
177
191
208
219
228
244
249
251
249
231
198
173
134
78
34
13
2
-6
-11
-9
-2
0
-2
0
-4
-13
-20
-25
-27
-39
-43
-43
-67
-101
-104
-90
-94
-90
-76
-76
-78
-67
-50
-41
-41
-41
-30
-23
-36
-53
-43
-30
-34
-30
-11
2
6
18
48
83
85
62
48
53
48
32
25
30
34
39
41
46
55
67
60
39
180
630
1130
1273
873
182
-136
-16
20
-50
-41
-48
-90
-67
-41
-73
-97
-87
-80
-71
-53
-39
-30
-16
-2
9
6
-6
-4
20
36
46
69
92
108
122
140
143
124
120
120
99
67
32
0
-32
-73
-113
-134
-147
-161
-159
-147
-147
-147
-131
-117
-115
-113
-106
-101
-108
-120
-124
-127
-134
-131
-122
-113
-108
-108
-101
-92
-83
-76
-67
-55
-55
-55
-41
-32
-41
-46
-36
-30
-25
-13
0
9
4
0
13
34
48
64
92
113
113
101
104
99
57
2
-18
-16
-9
-6
0
11
20
32
30
34
203
630
1051
1111
686
78
-138
-13
-2
-62
-30
-4
-23
-9
20
23
27
46
55
55
69
87
99
99
101
115
129
138
150
171
187
194
198
208
226
238
247
258
270
272
272
268
244
203
166
129
87
55
34
23
16
11
16
27
23
6
2
16
23
20
25
20
-11
-43
-46
-64
-115
-143
-131
-129
-134
-127
-117
-120
-120
-108
-94
-92
-92
-87
-69
-62
-64
-60
-53
-69
-99
-94
-71
-73
-78
-60
-43
-41
-34
-25
-34
-46
-36
-23
-20
-23
-20
-6
16
34
55
62
46
27
34
43
27
4
0
6
9
6
13
25
16
-27
-36
161
587
956
984
575
-9
-226
-106
-99
-201
-205
-161
-157
-157
-140
-127
-113
-97
-80
-60
-41
-34
-23
0
16
25
36
55
71
85
104
134
150
159
180
210
226
231
231
235
238
231
219
191
140
92
67
50
32
20
20
20
11
16
30
41
39
39
48
60
62
62
60
32
-4
-6
0
-16
-32
-43
-55
-55
-48
-46
-41
-36
-39
-36
-27
-18
-16
-16
-11
-27
-55
-53
-36
-60
-92
-76
-50
-76
-110
-101
-76
-71
-64
-43
-32
-34
-27
-23
-30
-32
-23
-9
6
23
46
69
69
50
53
71
69
48
36
39
41
46
60
76
83
71
55
131
459
949
1222
973
323
-122
-78
2
-85
-101
-53
-50
-50
-25
-11
-6
4
11
18
23
2
-23
-4
27
32
39
57
53
32
32
57
67
71
90
115
129
140
159
168
157
143
145
134
97
53
18
-9
-34
-53
-64
-69
-80
-87
-83
-90
-104
-104
-97
-99
-106
-104
-97
-97
-101
-101
-97
-94
-104
-127
-140
-134
-131
-140
-129
-108
-106
-101
-83
-73
-69
-57
-48
-39
-25
-13
-4
0
2
6
16
23
34
46
48
48
57
67
71
71
83
115
136
110
69
60
48
9
-13
-4
-6
-23
-20
-2
16
23
27
16
16
219
734
1248
1322
778
41
-161
6
-13
-83
-32
-20
-46
-13
16
0
-11
-11
-11
-4
13
23
18
13
20
39
60
71
80
94
110
131
154
187
217
231
240
261
275
272
272
268
233
180
127
71
23
-9
-32
-60
-92
-97
-80
-73
-69
-57
-41
-30
-23
-20
-11
-6
-32
-57
-50
-46
-48
-39
-30
-30
-30
-27
-20
-9
-2
0
6
9
13
30
39
30
9
2
13
-2
-41
-39
-11
-16
-20
2
23
36
60
83
87
73
62
73
80
55
34
46
62
62
60
64
73
78
57
62
281
771
1215
1248
744
67
-143
-4
-11
-76
-32
-2
-20
-16
2
9
18
30
36
34
18
0
0
6
4
6
23
41
50
62
85
104
115
124
131
122
120
134
150
154
152
150
131
83
23
-20
-53
-78
-104
-120
-117
-113
-110
-101
-90
-83
-78
-60
-41
-32
-34
-34
-25
-16
-16
-18
-27
-43
-41
-25
-13
-13
-13
-9
-2
2
6
18
23
20
20
34
41
41
41
46
48
50
57
69
69
62
64
78
62
25
16
20
-13
-53
-46
-36
-50
-36
0
11
2
2
9
4
-9
-13
-6
2
6
9
18
32
39
30
27
194
619
1049
1144
744
113
-147
-25
0
-78
-55
-18
-39
-34
-6
4
9
20
27
36
46
55
64
71
64
55
71
90
92
99
117
134
145
164
191
205
203
210
228
240
240
221
189
143
50
-62
-117
-147
-184
-191
-177
-180
-182
-168
-159
-157
-150
-136
-124
-120
-120
-108
-94
-92
-97
-92
-90
-92
-87
-78
-71
-73
-85
-92
-92
-90
-80
-73
-73
-78
-73
-64
-62
-69
-71
-64
-57
-53
-46
-36
-34
-36
-27
-11
-4
-4
2
13
25
27
36
43
43
43
55
55
41
39
48
62
78
87
92
97
64
9
13
41
27
4
6
16
23
32
43
55
55
36
46
233
654
1042
1100
704
122
-106
6
16
-57
-30
11
-2
0
23
30
32
41
57
71
71
57
62
78
80
78
94
106
106
115
138
154
161
173
194
217
235
247
254
249
233
217
201
175
122
69
34
-4
-50
-64
-60
-71
-78
-64
-50
-48
-46
-39
-36
-48
-69
-62
-48
-57
-60
-36
-30
-41
-34
-20
-16
-20
-25
-23
-16
-13
-11
0
9
9
11
18
25
30
34
48
53
48
55
69
71
69
69
69
46
13
16
36
34
27
41
53
50
48
41
25
23
34
46
60
76
90
97
83
46
34
50
36
4
4
18
16
13
23
30
30
9
9
198
658
1100
1150
670
11
-201
-69
-83
-189
-191
-171
-184
-189
-175
-161
-145
-127
-120
-120
-106
-87
-73
-53
-34
-32
-23
4
25
34
55
71
78
90
106
124
140
152
159
171
177
168
150
124
90
50
18
-4
-25
-48
-62
-76
-97
-92
-67
-62
-60
-41
-23
-13
-11
-16
-9
9
16
18
27
27
18
25
36
41
36
32
46
57
48
48
62
48
13
9
27
30
25
34
50
53
48
60
71
64
57
71
83
87
87
87
92
97
101
115
134
150
150
134
122
120
124
115
92
76
80
94
101
97
85
73
50
34
182
635
1160
1328
910
171
-182
-62
-16
-99
-76
-39
-50
-43
-27
-25
-20
-13
-18
-16
2
23
34
32
27
27
25
25
41
48
25
11
36
57
48
53
80
83
46
34
64
73
50
23
-9
-46
-78
-104
-131
-166
-182
-168
-152
-145
-140
-129
-117
-106
-94
-78
-69
-69
-78
-87
-90
-85
-85
-80
-80
-87
-83
-69
-69
-76
-69
-57
-53
-53
-48
-46
-53
-60
-53
-41
-39
-39
-30
-16
-9
-2
9
18
20
20
34
50
48
41
57
76
87
108
136
131
87
50
62
71
48
32
41
53
55
50
50
57
55
36
67
321
795
1169
1132
617
13
-131
-2
-25
-97
-76
-53
-60
-50
-34
-25
-13
0
11
20
20
27
46
62
64
57
50
53
60
64
78
97
106
117
145
168
180
191
196
196
198
194
177
147
104
64
39
13
-11
-16
-13
-23
-27
-18
-2
2
0
4
2
-27
-53
-43
-27
-32
-27
-11
-6
-11
-9
4
16
13
9
18
25
11
-4
6
23
18
13
25
34
36
46
53
53
50
57
62
53
46
53
60
60
57
62
67
43
6
6
27
36
36
53
80
101
101
94
87
76
76
73
55
43
48
50
48
48
53
60
46
11
106
503
1012
1229
924
244
-189
-147
-80
-147
-150
-134
-154
-150
-131
-134
-129
-124
-145
-152
-131
-117
-117
-113
-97
-83
-69
-55
-39
-20
2
13
20
36
43
48
78
108
120
129
143
138
124
104
73
32
-4
-39
-62
-71
-76
-73
-67
-69
-71
-55
-34
-23
-18
-9
2
4
2
0
-4
-11
-11
0
9
6
4
11
16
18
23
32
36
34
39
48
55
55
57
50
16
-32
-41
-13
-9
-23
-13
6
11
13
16
9
2
11
32
57
78
85
85
80
73
69
62
50
41
41
50
57
55
55
67
71
43
78
369
864
1194
1079
520
-27
-99
20
-25
-78
-50
-36
-36
-23
-16
-9
6
16
13
25
41
41
27
32
50
55
57
76
92
101
113
127
134
131
143
168
180
154
129
138
152
124
76
36
-16
-99
-154
-161
-175
-196
-191
-173
-171
-171
-157
-140
-138
-138
-122
-99
-99
-110
-99
-80
-80
-87
-85
-80
-80
-80
-73
-64
-60
-71
-85
-76
-71
-76
-69
-62
-67
-67
-60
-55
-60
-60
-50
-46
-53
-50
-43
-43
-36
-16
11
34
41
16
-13
-16
-2
-6
-23
-27
-20
-23
-25
-16
-4
-4
-16
-43
57
462
936
1081
739
129
-194
-101
-41
-108
-97
-50
-55
-46
-23
-20
-16
2
18
27
36
50
60
64
78
85
76
73
92
108
108
117
136
152
168
189
212
231
233
226
233
238
217
177
138
99
60
32
23
11
-13
-43
-73
-90
-83
-69
-55
-60
-71
-62
-43
-43
-50
-46
-34
-30
-32
-25
-18
-39
-73
-73
-48
-43
-50
-46
-30
-20
-20
-11
-4
-6
-2
9
13
13
23
39
57
78
87
90
83
67
71
80
60
34
36
46
46
48
57
73
83
69
48
168
550
993
1144
818
191
-161
-83
-13
-78
-90
-71
-78
-69
-60
-69
-64
-46
-32
-18
-4
2
4
16
30
39
46
64
78
83
94
122
143
152
161
182
189
164
147
166
166
134
104
78
32
-23
-67
-101
-127
-143
-145
-145
-150
-143
-127
-117
-113
-104
-104
-99
-87
-80
-80
-87
-101
-101
-87
-85
-85
-71
-64
-73
-76
-62
-41
-41
-62
-73
-67
-71
-73
-57
-50
-53
-39
-23
-18
-20
-13
2
23
43
62
85
97
80
69
80
90
69
48
50
60
62
69
78
67
27
-4
-11
87
462
1000
1282
989
265
-187
-97
-13
-97
-80
-23
-36
-41
-18
-4
6
18
30
48
50
48
62
85
97
97
108
131
145
154
168
173
161
164
194
224
238
249
261
268
268
256
235
201
157
120
87
50
20
6
-2
-2
9
20
20
9
6
20
32
27
23
30
32
27
23
9
2
6
2
0
2
0
2
13
4
-41
-71
-69
-85
-127
-145
-127
-120
-124
-113
-99
-101
-101
-90
-76
-67
-62
-41
-9
18
20
4
-27
-67
-83
-80
-85
-92
-92
-80
-67
-60
-55
-41
-43
-73
50
496
1035
1248
887
150
-256
-150
-85
-166
-150
-113
-131
-122
-104
-106
-97
-85
-99
-106
-90
-76
-69
-57
-34
-11
2
13
30
50
67
85
115
147
166
182
208
231
212
180
182
191
164
122
92
64
30
-2
-16
-18
-30
-36
-41
-60
-69
-50
-30
-23
-16
-4
4
-2
-11
-4
2
-4
-2
6
13
13
11
9
13
20
25
32
41
39
36
46
57
55
32
9
-2
-4
-4
2
2
-2
2
13
16
9
11
18
23
30
46
76
99
99
87
85
85
78
67
53
30
-4
-9
11
11
0
6
4
-20
9
275
744
1077
982
441
-101
-180
-48
-78
-115
-69
-50
-57
-41
-30
-25
-2
16
16
16
32
46
50
62
78
85
92
104
110
108
115
129
147
171
187
203
214
196
168
171
189
182
150
117
90
55
25
9
-2
-16
-23
-13
-6
-4
-4
-6
-13
-16
-11
-4
-30
-83
-106
-83
-73
-90
-110
-120
-131
-159
-164
-147
-143
-152
-152
-147
-154
-159
-164
-177
-184
-177
-171
-166
-166
-164
-161
-154
-152
-143
-127
-120
-120
-117
-99
-85
-85
-80
-62
-55
-57
-46
-30
-25
-25
-13
4
20
32
48
78
101
99
92
92
90
83
76
71
71
69
71
83
92
87
80
67
71
258
686
1067
1097
672
71
-152
-55
-67
-120
-78
-64
-78
-50
-27
-27
-16
2
6
13
32
46
53
57
71
87
97
106
108
106
108
124
145
168
173
171
184
203
208
208
214
212
191
171
147
110
69
36
27
23
11
11
18
16
4
4
9
-2
-18
-23
-27
-43
-46
-39
-34
-39
-41
-39
-32
-32
-48
-62
-55
-46
-48
-43
-34
-55
-85
-71
-48
-50
-53
-39
-27
-20
-18
-13
-6
-2
0
6
-2
-39
-57
-41
-25
-30
-23
-6
-2
-6
2
23
34
30
30
36
39
41
50
69
92
106
106
99
92
90
85
62
36
30
41
48
39
27
32
43
23
13
196
649
1083
1130
656
-9
-244
-108
-97
-171
-140
-106
-117
-113
-99
-104
-104
-83
-73
-71
-53
-32
-27
-13
6
13
11
23
39
36
16
20
48
71
94
115
120
117
124
136
140
129
117
99
64
25
-4
-27
-53
-73
-76
-62
-64
-71
-60
-41
-32
-25
-20
-25
-30
-23
-16
-11
-6
0
6
9
13
11
16
20
2
-20
-9
9
2
-2
13
25
23
32
50
60
53
48
55
62
67
64
62
50
48
57
67
71
69
67
69
57
34
41
73
90
87
92
94
94
92
83
67
60
64
76
80
76
78
90
83
60
182
617
1137
1319
949
240
-154
-62
0
-76
-62
-23
-39
-36
-16
-16
-11
-4
-23
-34
-16
0
9
20
30
32
6
-23
-20
-6
0
11
32
57
76
90
108
124
129
138
147
145
124
92
62
27
-18
-53
-60
-90
-140
-152
-122
-110
-110
-99
-78
-67
-64
-53
-34
-30
-30
-20
-11
-6
-9
-23
-27
-18
-13
-4
0
-6
-6
9
23
27
25
30
41
46
46
46
30
6
11
27
27
27
36
43
43
46
55
64
67
64
67
78
90
108
113
97
85
97
101
85
62
48
60
76
73
71
80
87
62
73
316
801
1181
1137
630
18
-177
-73
-80
-136
-110
-90
-94
-92
-92
-90
-71
-55
-48
-36
-18
-9
-6
6
25
27
23
25
32
34
41
43
39
43
67
94
115
129
136
143
145
138
115
87
57
11
-36
-50
-55
-64
-71
-64
-57
-57
-48
-25
-20
-30
-18
6
11
11
20
25
23
25
30
34
36
32
36
43
43
41
46
50
53
46
41
46
27
-6
-2
16
9
11
25
30
27
30
39
48
43
36
43
48
20
-16
-30
-25
-18
0
34
62
57
43
46
53
48
27
0
-13
-13
-2
11
13
13
18
9
4
164
580
1000
1086
702
97
-177
-78
-48
-117
-104
-71
-83
-90
-92
-97
-90
-76
-69
-62
-62
-71
-76
-69
-57
-43
-32
-23
-11
11
23
9
13
41
50
60
78
92
94
94
99
108
92
48
2
-27
-60
-83
-90
-90
-92
-94
-85
-85
-87
-76
-60
-53
-46
-34
-18
-4
-4
-9
-2
4
4
11
25
25
20
32
43
48
48
53
64
62
57
71
83
78
73
85
90
85
80
85
90
90
90
97
99
92
97
108
117
120
131
157
171
171
164
161
157
143
129
122
115
101
92
94
80
43
39
46
32
168
614
1125
1275
850
138
-166
-32
-2
-76
-36
-6
-34
-16
18
13
9
32
41
46
62
78
90
97
101
106
110
108
115
136
145
152
166
177
189
205
221
235
244
247
244
235
191
120
78
53
-6
-57
-76
-97
-122
-122
-106
-104
-106
-97
-83
-87
-106
-108
-92
-92
-120
-136
-127
-131
-150
-143
-122
-108
-99
-90
-85
-83
-76
-64
-55
-53
-57
-48
-27
-23
-18
-9
-4
-2
9
23
32
32
27
34
55
69
78
104
115
92
78
85
92
85
71
60
60
62
62
71
73
73
83
80
60
177
598
1104
1303
959
261
-122
-32
18
-67
-71
-48
-64
-57
-32
-25
-30
-16
-4
-27
-53
-36
-9
-4
0
16
30
39
55
78
99
108
122
143
154
166
182
194
201
205
205
205
182
138
97
69
39
-2
-39
-55
-57
-55
-53
-46
-53
-62
-62
-60
-60
-57
-48
-46
-50
-43
-34
-36
-46
-46
-36
-32
-34
-27
-20
-25
-36
-53
-57
-46
-46
-60
-62
-60
-55
-43
-34
-36
-34
-18
-4
0
2
2
0
-18
-50
-43
-13
-6
6
39
48
30
25
39
36
18
13
20
25
20
25
25
6
-23
-53
-53
108
513
929
1030
647
11
-256
-124
-92
-166
-136
-94
-101
-87
-60
-48
-41
-36
-23
-4
4
9
25
36
27
23
43
55
50
60
85
108
124
143
159
168
171
182
198
205
201
189
171
143
106
71
41
-2
-57
-78
-67
-62
-67
-62
-46
-41
-48
-46
-46
-60
-71
-69
-57
-57
-62
-57
-53
-55
-60
-46
-36
-48
-48
-32
-25
-25
-23
-16
-9
-4
-2
4
9
11
16
25
27
25
30
39
32
11
-2
0
2
2
11
27
30
30
36
43
53
78
110
122
106
87
87
97
80
57
57
60
57
60
64
67
67
64
50
90
355
818
1132
966
355
-150
-150
-32
-97
-124
-69
-57
-64
-39
-25
-34
-25
-2
13
20
25
30
41
50
55
69
87
99
108
129
145
157
173
175
145
131
154
175
173
166
168
166
150
