1723800704.00
64.000000
-0.00
-0.00
-0.00
-0.00
-0.00
-0.00
-0.00
-0.00
-0.00
-0.00
0.00
0.01
0.01
-0.00
-0.03
-0.05
-0.05
0.00
0.13
0.36
0.66
1.01
1.37
1.72
2.06
2.40
2.79
3.24
3.80
4.42
5.06
5.66
6.20
6.68
7.15
7.68
8.31
9.14
10.09
11.04
11.88
12.56
13.14
13.76
14.65
15.96
17.91
20.32
22.90
25.38
27.58
29.57
31.68
34.32
37.81
42.54
48.15
54.10
59.83
64.97
69.58
74.14
79.34
85.71
93.76
103.00
112.62
121.73
129.77
136.75
143.30
150.75
157.77
166.64
177.95
191.79
206.97
220.57
228.25
225.36
208.53
176.87
132.76
80.05
23.07
-34.94
-92.44
-149.16
-205.23
-260.37
-313.74
-363.87
-409.83
-450.91
-486.50
-515.74
-537.23
-549.22
-549.96
-538.37
-514.21
-478.67
-433.88
-382.45
-327.02
-269.84
-212.63
-156.66
-102.95
-52.37
-5.90
35.58
71.43
101.35
125.50
144.38
158.69
169.15
176.37
180.75
182.57
182.07
179.51
175.23
169.65
163.18
156.15
148.81
141.30
133.69
126.02
118.33
110.69
103.16
95.80
88.68
81.83
75.25
68.95
62.95
57.25
51.86
46.78
42.03
37.59
33.45
29.61
26.07
22.81
19.83
17.11
14.67
12.48
10.54
8.83
7.35
6.07
4.97
4.05
3.27
2.62
2.09
1.65
1.30
1.01
0.79
0.61
0.47
0.37
0.28
0.22
0.18
0.14
0.12
0.11
0.10
0.11
0.12
0.14
0.17
0.21
0.24
0.29
0.33
0.38
0.43
0.48
0.53
0.58
0.62
0.67
0.71
0.76
0.81
0.87
0.95
1.04
1.16
1.27
1.36
1.43
1.48
1.54
1.65
1.83
2.09
2.41
2.74
3.04
3.30
3.53
3.78
4.10
4.54
5.09
5.71
6.33
6.88
7.33
7.69
8.06
8.54
9.25
10.19
11.28
12.34
13.18
13.71
14.00
14.26
14.80
15.85
17.37
19.06
20.35
20.66
19.57
17.07
13.52
9.45
5.33
1.26
-3.05
-8.14
-14.50
-22.17
-30.56
-38.51
-44.71
-48.28
-49.02
-47.59
-45.17
-42.89
-41.56
-41.52
-42.76
-45.06
-47.69
-49.22
-47.68
-41.39
-30.06
-15.71
-2.11
6.84
9.08
5.64
0.09
-3.51
-2.92
1.29
6.50
10.13
11.45
12.01
14.53
20.79
30.60
41.95
52.52
61.17
68.45
75.96
85.11
96.23
108.35
119.93
129.38
135.76
138.60
137.39
131.43
120.12
103.62
83.08
60.75
38.91
19.44
3.35
-9.27
-19.14
-27.31
-35.35
-45.61
-58.72
-76.68
-101.69
-135.82
-180.34
-234.70
-295.36
-355.50
-405.96
-437.65
-445.05
-427.87
-391.18
-343.37
-292.89
-245.53
-203.44
-166.06
-131.85
-100.00
-70.28
-42.34
-14.79
14.97
49.49
89.39
132.14
172.29
202.86
218.42
217.25
202.11
179.06
155.21
136.00
123.75
117.72
115.43
114.41
113.17
111.33
108.94
105.97
102.17
97.42
91.99
86.52
81.74
77.96
74.77
71.13
65.83
58.20
48.29
36.91
25.32
14.85
6.75
1.84
0.26
1.34
3.55
5.02
4.50
1.80
-2.08
-5.58
-7.58
-8.28
-9.18
-12.25
-19.14
-30.08
-43.74
-57.56
-68.51
-73.61
-70.62
-58.52
-38.21
-12.84
12.85
33.79
46.45
50.14
46.98
40.57
34.18
29.31
25.63
22.03
17.73
13.17
9.68
8.51
10.12
13.96
18.92
24.06
29.04
33.95
38.89
43.80
48.13
51.19
52.42
51.66
49.15
45.59
41.75
38.34
35.78
33.89
32.08
29.44
25.22
19.29
12.28
5.37
-0.19
-3.78
-5.87
-7.70
-10.56
-15.08
-20.84
-26.65
-31.28
-34.11
-35.55
-36.72
-38.94
-42.96
-48.78
-55.58
-62.14
-67.28
-69.96
-69.43
-65.08
-56.53
-43.82
-27.79
-10.08
7.11
21.59
31.84
37.52
39.42
38.94
37.34
35.25
32.67
29.36
25.31
21.18
18.12
17.31
19.33
23.93
30.06
36.33
41.56
45.00
46.66
46.85
45.97
44.21
41.40
37.34
31.97
25.71
19.35
13.77
9.42
6.16
3.34
0.34
-3.05
-6.42
-9.07
-10.55
-10.95
-11.09
-11.92
-14.01
-17.38
-21.49
-25.62
-29.32
-32.41
-34.99
-37.33
-39.88
-43.22
-47.89
-53.96
-60.65
-66.38
-68.98
-66.64
-58.60
-45.46
-29.01
-11.53
4.95
19.17
30.67
39.43
45.51
48.61
48.21
43.98
36.31
26.62
17.17
10.22
7.20
8.09
11.67
16.34
20.97
25.29
29.58
34.11
38.52
41.92
43.39
42.50
39.57
35.30
30.41
25.20
19.75
14.07
8.46
3.43
-0.59
-3.51
-5.62
-7.51
-9.61
-12.09
-14.88
-17.70
-20.30
-22.67
-24.97
-27.48
-30.46
-34.00
-37.94
-41.96
-45.64
-48.71
-51.24
-53.74
-56.93
-61.40
-67.07
-72.80
-76.50
-75.72
-68.39
-53.81
-33.03
-8.68
15.79
37.22
53.53
64.03
69.22
70.12
67.74
62.81
55.94
47.83
39.52
32.36
27.62
26.08
27.70
31.57
36.48
41.37
45.62
49.07
51.72
53.22
52.97
50.26
44.72
36.65
27.00
17.03
7.96
0.69
-4.53
-7.83
-9.73
-10.89
-11.97
-13.57
-15.98
-19.25
-23.13
-27.22
-31.17
-34.51
-36.83
-37.76
-37.34
-36.06
-34.94
-35.29
-38.19
-43.98
-52.00
-60.51
-67.13
-69.57
-66.20
-56.51
-41.17
-21.73
-0.37
20.66
39.34
54.37
65.17
71.71
74.22
72.75
67.30
57.82
44.91
29.98
15.38
3.73
-2.89
-3.81
0.03
6.73
14.21
21.05
26.69
31.04
34.12
35.74
35.50
33.24
29.25
24.28
19.21
14.69
10.77
7.17
3.41
-0.60
-4.54
-7.77
-9.96
-11.44
-13.10
-16.04
-20.75
-27.06
-34.08
-40.66
-46.02
-50.06
-53.16
-55.90
-58.70
-61.75
-65.04
-68.58
-72.22
-75.42
-77.11
-75.64
-69.46
-57.83
-41.41
-22.29
-3.43
12.25
22.56
26.84
25.75
21.12
15.10
9.56
5.76
4.32
5.52
9.42
15.82
23.83
31.77
37.52
39.28
36.58
30.72
24.30
20.07
19.56
22.49
27.01
30.84
32.40
31.42
28.61
25.06
21.62
18.54
15.67
12.74
9.67
6.52
3.68
1.36
-0.53
-2.39
-4.84
-8.42
-13.23
-18.75
-24.06
-28.24
-30.93
-32.63
-34.45
-37.51
-42.32
-48.25
-53.70
-56.60
-55.25
-48.90
-38.01
-24.05
-8.90
5.72
18.52
28.86
36.41
41.01
42.59
41.23
37.36
31.66
25.21
19.13
14.43
11.81
11.46
13.12
16.13
19.67
23.05
25.82
27.91
29.49
30.75
31.73
32.31
32.27
31.56
30.28
28.58
26.33
23.04
18.04
10.89
1.83
-8.08
-17.23
-24.11
-27.92
-28.87
-28.05
-26.91
-26.72
-28.18
-31.41
-35.93
-40.97
-45.49
-48.30
-48.33
-44.82
-37.66
-27.48
-15.59
-3.48
7.50
16.51
23.18
27.32
28.79
27.46
23.53
17.81
11.58
6.28
2.93
1.79
2.45
4.16
6.38
9.05
12.26
16.06
20.00
23.34
25.26
25.39
24.05
22.03
20.14
18.66
17.16
14.74
10.64
4.81
-1.99
-8.50
-13.71
-17.28
-19.70
-21.67
-23.73
-25.95
-28.14
-30.18
-32.33
-35.11
-38.78
-42.98
-46.48
-47.64
-45.08
-38.22
-27.71
-15.17
-2.79
7.47
14.47
18.17
19.48
19.70
19.75
19.71
18.80
15.99
10.75
3.53
-4.16
-10.47
-13.83
-13.60
-10.31
-5.08
0.85
6.52
11.43
15.23
17.52
17.95
16.42
13.37
9.84
7.15
6.31
7.49
9.89
11.92
11.95
9.03
3.36
-3.81
-10.72
-15.88
-18.71
-19.64
-19.89
-20.80
-23.25
-27.33
-32.40
-37.39
-41.13
-42.62
-41.13
-36.13
-27.51
-15.72
-1.87
12.30
24.78
33.84
38.52
39.02
36.34
31.95
27.16
22.75
19.02
16.10
14.24
13.84
15.26
18.33
22.30
26.08
28.79
30.10
30.25
29.78
29.02
28.02
26.53
24.47
21.92
19.20
16.61
14.15
11.76
9.39
7.18
5.44
4.54
4.48
4.89
5.22
4.81
3.26
0.34
-3.89
-9.18
-15.03
-20.85
-26.33
-31.47
-36.66
-42.33
-48.46
-54.17
-57.99
-58.32
-54.11
-45.41
-33.27
-19.44
-5.82
5.95
14.75
20.08
21.89
20.83
17.93
14.41
11.22
8.87
7.27
5.97
4.60
3.05
1.53
0.50
0.22
0.78
2.13
4.12
6.56
9.08
11.01
11.39
9.28
4.34
-2.95
-11.28
-19.12
-25.38
-29.86
-33.14
-36.12
-39.43
-43.25
-47.43
-51.73
-56.00
-60.13
-63.82
-66.57
-67.90
-67.50
-65.55
-62.46
-58.57
-53.92
-48.05
-40.48
-31.05
-20.25
-9.31
0.22
7.02
10.48
11.01
9.95
9.19
10.45
14.83
22.48
32.75
44.48
56.29
66.96
75.40
80.80
82.74
81.25
76.93
70.64
63.31
55.71
48.34
41.59
35.76
31.18
28.16
26.81
27.01
28.29
30.01
31.53
32.42
32.58
32.17
31.47
30.67
29.76
28.58
26.85
24.49
21.59
18.48
15.56
13.08
11.04
9.26
7.61
6.08
4.74
3.72
2.98
2.39
1.72
0.81
-0.35
-1.65
-2.91
-3.99
-4.96
-5.98
-7.32
-9.23
-11.70
-14.51
-17.23
-19.40
-20.67
-21.00
-20.83
-20.97
-22.43
-25.85
-31.02
-36.72
-41.02
-42.05
-38.79
-31.63
-22.13
-12.33
-3.88
2.48
6.94
10.15
12.67
14.61
15.63
15.20
12.98
9.18
4.58
0.30
-2.40
-2.70
-0.35
4.15
9.91
15.91
21.21
25.08
27.06
26.99
25.04
21.94
18.69
16.35
15.41
15.66
16.26
16.25
15.05
12.60
9.31
5.64
1.98
-1.43
-4.34
-6.43
-7.41
-7.24
-6.36
-5.46
-5.29
-6.35
-8.71
-12.02
-15.76
-19.40
-22.62
-25.33
-27.67
-30.08
-32.95
-36.51
-40.74
-45.04
-48.51
-50.02
-48.62
-43.75
-35.51
-24.74
-12.78
-1.28
8.29
15.00
18.74
20.07
19.88
18.94
17.47
15.35
12.43
8.98
5.77
3.88
4.08
6.35
9.88
13.40
15.87
17.02
17.41
17.91
19.15
21.02
22.63
22.84
20.92
17.14
12.68
9.22
7.99
9.23
11.95
14.44
15.15
13.39
9.76
5.68
2.69
1.54
1.86
2.40
1.80
-0.49
-4.01
-7.45
-9.47
-9.53
-8.08
-6.43
-5.92
-7.27
-10.22
-14.01
-17.80
-21.26
-24.66
-28.46
-32.74
-36.71
-38.90
-37.59
-31.67
-21.33
-8.04
5.83
17.94
26.93
32.65
35.89
37.63
38.24
37.40
34.44
29.16
22.32
15.43
10.14
7.35
6.96
8.11
9.90
11.88
14.22
17.29
21.08
24.99
28.05
29.49
29.08
27.30
24.97
22.85
21.33
20.45
19.92
19.33
18.27
16.36
13.39
9.35
4.52
-0.67
-5.74
-10.30
-14.21
-17.41
-19.85
-21.47
-22.23
-22.27
-22.03
-22.17
-23.33
-25.82
-29.49
-33.87
-38.36
-42.58
-46.39
-49.78
-52.56
-54.22
-54.04
-51.29
-45.61
-37.22
-27.04
-16.41
-6.76
0.94
6.47
10.25
13.08
15.50
17.44
18.24
17.08
13.59
8.25
2.38
-2.69
-6.04
-7.61
-7.99
-7.92
-7.69
-6.86
-4.60
-0.22
6.05
13.01
18.70
21.26
19.91
15.35
9.47
4.33
1.16
-0.24
-1.03
-2.60
-5.60
-9.66
-13.85
-17.36
-19.93
-21.80
-23.23
-24.04
-23.75
-21.99
-18.68
-14.40
-10.16
-6.98
-5.70
-6.74
-10.04
-15.14
-21.15
-26.96
-31.47
-33.85
-33.53
-30.38
-24.50
-16.19
-6.05
4.98
15.68
24.80
31.41
35.19
36.25
35.09
32.07
27.50
21.67
15.11
8.67
3.27
-0.35
-2.06
-2.24
-1.64
-0.82
0.20
1.86
4.66
8.65
13.23
17.28
19.70
19.93
18.02
14.62
10.44
6.04
1.82
-1.79
-4.28
-5.21
-4.54
-2.95
-1.52
-1.49
-3.40
-7.05
-11.48
-15.56
-18.47
-20.03
-20.82
-21.83
-24.10
-28.16
-33.80
-39.89
-44.75
-46.57
-44.07
-37.02
-26.30
-13.68
-1.16
9.59
17.65
22.85
25.55
26.32
25.72
24.13
21.66
18.32
14.18
9.51
5.09
1.82
0.55
1.69
4.98
9.52
14.11
17.74
19.86
20.56
20.36
19.84
19.36
18.91
18.11
16.60
14.10
10.71
6.79
2.72
-1.15
-4.80
-8.41
-12.22
-16.38
-20.73
-24.87
-28.20
-30.26
-30.90
-30.41
-29.57
-29.32
-30.55
-33.86
-39.18
-45.81
-52.45
-57.38
-58.95
-56.05
-48.38
-36.73
-22.74
-8.39
4.65
15.35
23.61
29.74
34.14
37.04
38.31
37.70
35.07
30.52
24.44
17.64
11.19
6.43
4.52
6.14
11.11
18.28
25.81
31.74
34.67
34.07
30.61
25.64
20.78
17.30
15.65
15.46
15.78
15.58
14.16
11.49
7.90
3.90
-0.19
-4.32
-8.51
-12.59
-16.16
-18.67
-19.70
-19.35
-18.33
-17.68
-18.35
-20.71
-24.46
-28.83
-33.08
-36.80
-40.02
-42.88
-45.19
-46.22
-44.87
-40.29
-32.26
-21.47
-9.16
3.24
14.56
23.98
31.05
35.53
37.35
36.68
33.92
29.60
24.30
18.70
13.56
9.65
7.73
8.15
10.70
14.54
18.73
22.41
25.23
27.28
28.80
29.98
30.79
31.16
30.84
29.48
26.78
22.59
17.29
11.66
6.72
3.13
0.90
-0.72
-2.51
-4.77
-7.05
-8.53
-8.67
-7.78
-7.01
-7.50
-9.71
-13.12
-16.52
-18.85
-19.82
-20.16
-21.02
-23.33
-27.33
-32.65
-38.60
-44.57
-49.99
-54.31
-56.68
-56.06
-51.48
-42.45
-29.29
-13.34
3.20
17.76
28.28
33.71
34.49
32.13
28.57
25.12
22.13
19.06
15.15
10.44
5.91
3.24
3.75
7.75
14.31
21.72
28.39
33.38
36.66
38.57
39.50
39.46
38.29
35.66
31.59
26.48
20.97
15.71
11.12
7.19
3.63
0.10
-3.48
-6.82
-9.36
-10.60
-10.52
-9.72
-9.15
-9.81
-12.09
-15.64
-19.59
-23.02
-25.51
-27.37
-29.24
-31.61
-34.48
-37.51
-40.37
-43.31
-47.02
-52.14
-58.32
-64.03
-66.80
-64.34
-55.45
-40.68
-21.88
-1.68
17.31
33.17
44.74
51.84
54.95
55.16
53.65
51.36
48.82
46.15
43.48
41.18
39.60
38.83
38.38
37.37
35.04
31.48
27.67
24.97
24.41
26.00
28.69
31.02
31.83
30.71
28.00
24.36
20.35
16.18
11.88
7.50
3.24
-0.58
-3.68
-5.88
-7.21
-7.84
-8.16
-8.54
-9.24
-10.35
-11.68
-12.97
-14.13
-15.36
-17.13
-19.79
-23.42
-27.71
-32.21
-36.57
-40.76
-44.96
-49.15
-52.80
-54.86
-54.21
-50.19
-42.94
-33.49
-23.17
-13.10
-3.85
4.49
11.91
18.23
22.88
25.19
24.76
21.70
16.85
11.49
6.99
4.41
4.21
6.16
9.56
13.44
17.02
19.79
21.73
23.09
24.28
25.61
27.05
28.37
29.14
29.01
27.78
25.46
22.24
18.43
14.34
10.19
6.07
2.04
-1.86
-5.38
-8.03
-9.27
-8.83
-6.86
-4.17
-1.84
-0.94
-1.99
-4.82
-8.79
-13.11
-17.39
-21.68
-26.41
-32.04
-38.67
-45.63
-51.51
-54.50
-52.92
-45.95
-34.12
-19.17
-3.50
10.73
22.17
30.48
35.98
39.11
40.14
39.06
35.99
31.42
26.07
20.66
15.68
11.35
7.87
5.64
5.13
6.76
10.38
15.30
20.36
24.32
26.38
26.19
24.03
20.55
16.62
13.03
10.24
8.32
6.85
5.12
2.34
-1.75
-6.88
-12.11
-16.44
-19.15
-20.13
-19.97
-19.51
-19.56
-20.51
-22.48
-25.47
-29.41
-34.36
-40.24
-46.91
-54.06
-61.43
-68.83
-76.07
-82.68
-87.75
-90.26
-89.34
-84.79
-77.15
-67.61
-57.51
-48.04
-39.94
-33.52
-28.80
-25.40
-22.73
-19.99
-16.39
-11.42
-4.92
2.96
11.98
21.99
32.92
44.61
56.55
67.91
77.84
85.73
91.46
95.37
97.80
98.75
97.66
93.76
86.73
77.16
66.58
56.81
49.23
44.04
40.40
36.93
32.63
27.20
21.04
14.90
9.26
4.13
-0.90
-6.29
-12.18
-18.17
-23.40
-27.06
-28.68
-28.50
-27.41
-26.72
-27.54
-30.45
-35.34
-41.62
-48.50
-55.17
-60.80
-64.39
-64.92
-61.69
-54.80
-45.21
-34.39
-23.67
-13.80
-4.84
3.52
11.33
18.18
23.33
26.00
25.74
22.71
17.50
10.91
3.90
-2.33
-6.57
-7.67
-5.04
1.10
9.64
18.84
26.98
32.87
36.24
37.66
38.06
38.22
38.28
37.95
36.66
34.16
30.79
27.40
24.96
23.89
23.84
23.91
23.05
20.71
17.03
12.76
8.87
6.12
4.70
4.13
3.51
1.94
-1.03
-5.20
-9.92
-14.35
-17.98
-20.71
-22.81
-24.74
-27.01
-30.05
-34.26
-39.80
-46.49
-53.41
-59.09
-61.70
-59.98
-53.75
-44.00
-32.47
-20.72
-9.69
0.31
9.30
17.13
23.13
26.63
27.20
25.08
21.26
17.04
13.52
11.46
11.01
12.10
14.58
18.26
22.83
27.83
32.55
36.25
38.46
39.02
38.19
36.43
34.22
31.86
29.61
27.74
26.66
26.66
27.65
28.94
29.38
27.66
23.07
16.03
7.98
1.13
-2.62
-2.61
0.33
4.21
6.82
6.90
4.58
1.23
-1.57
-2.84
-2.82
-2.68
-3.68
-6.31
-10.06
-13.74
-16.51
-18.41
-20.22
-22.82
-26.26
-29.35
-30.11
-26.85
-19.04
-7.72
4.98
16.87
26.48
33.45
38.18
41.12
42.42
41.85
39.35
35.25
30.52
26.34
23.76
23.33
24.88
27.76
31.06
33.87
35.50
35.70
34.48
32.34
29.91
27.73
26.00
24.51
22.70
20.19
16.92
13.22
9.70
6.80
4.68
3.01
1.24
-1.13
-4.25
-7.78
-11.05
-13.38
-14.40
-14.34
-13.93
-14.03
-15.14
-17.21
-19.61
-21.60
-22.70
-23.07
-23.28
-23.92
-25.32
-27.42
-30.01
-33.00
-36.51
-40.64
-45.01
-48.50
-49.31
-45.68
-36.78
-23.39
-7.75
7.11
18.61
25.53
28.20
27.91
26.16
23.95
21.61
19.07
16.26
13.13
9.64
5.25
-1.13
-10.91
-25.03
-43.55
-65.24
-87.79
-108.32
-124.01
-132.68
-133.00
-124.45
-107.18
-81.83
-49.69
-12.93
25.46
61.86
93.12
117.54
135.27
148.06
158.39
168.26
178.33
188.10
196.51
202.73
206.60
208.60
209.16
208.35
205.59
199.92
190.37
176.52
158.59
137.48
114.49
91.10
68.54
47.51
27.97
9.20
-9.93
-30.20
-51.34
-71.68
-88.43
-99.00
-102.27
-99.39
-93.16
-86.52
-80.40
-73.12
-61.30
-41.96
-14.62
17.90
50.59
78.45
98.44
110.25
115.75
117.65
118.39
119.76
122.89
128.47
136.73
147.20
158.44
168.24
174.03
173.57
165.22
148.33
123.15
90.75
52.89
11.74
-30.42
-71.63
-110.75
-147.72
-183.38
-218.98
-255.82
-294.72
-336.32
-381.47
-431.11
-485.20
-541.32
-594.17
-636.70
-662.70
-669.54
-659.19
-636.99
-608.63
-577.38
-543.21
-504.13
-458.66
-407.59
-353.94
-301.29
-251.94
-206.06
-162.40
-119.66
-77.49
-36.49
2.87
40.91
79.06
119.05
161.65
205.47
246.75
280.36
301.39
306.90
297.11
275.37
246.91
217.00
189.34
165.06
143.21
121.84
99.65
77.16
56.93
42.70
37.72
43.13
57.11
75.37
92.44
103.35
104.94
96.66
80.46
60.37
41.63
29.57
28.42
40.36
64.97
99.33
138.70
177.55
210.77
233.93
243.69
237.94
216.23
180.46
135.26
87.43
44.61
13.41
-2.23
-1.65
12.71
36.12
62.81
86.98
104.08
111.69
110.11
102.02
91.37
81.79
75.05
70.91
67.61
63.54
58.16
52.35
47.61
45.16
45.26
47.10
49.51
51.34
51.97
51.42
50.10
48.60
47.23
46.00
44.45
42.05
38.44
33.65
28.19
22.74
17.85
13.55
9.51
5.25
0.52
-4.31
-8.39
-10.72
-10.59
-7.88
-3.30
1.82
5.80
7.34
6.02
2.43
-2.12
-6.38
-9.81
-12.81
-16.32
-21.12
-27.18
-33.73
-39.81
-44.97
-49.62
-54.62
-60.38
-66.36
-71.02
-72.66
-70.25
-63.97
-55.02
-45.01
-35.50
-27.39
-21.08
-16.48
-13.22
-10.92
-9.40
-8.76
-9.36
-11.57
-15.38
-20.11
-24.58
-27.41
-27.67
-25.28
-20.99
-16.02
-11.52
-8.10
-5.71
-4.08
-2.99
-2.58
-3.29
-5.43
-8.79
-12.56
-15.52
-16.72
-15.93
-13.84
-11.57
-10.00
-9.52
-9.90
-10.70
-11.74
-13.13
-14.98
-17.20
-19.36
-21.02
-22.03
-22.67
-23.51
-25.10
-27.67
-31.08
-34.98
-38.98
-42.75
-45.68
-46.84
-45.21
-40.07
-31.66
-21.20
-10.49
-1.21
5.88
10.97
14.74
17.62
19.45
19.52
17.19
12.49
6.39
0.51
-3.68
-5.35
-4.64
-2.25
1.11
5.02
9.33
13.94
18.41
21.85
23.26
22.11
18.72
14.13
9.80
6.86
5.70
5.73
5.85
5.10
3.06
-0.03
-3.52
-6.81
-9.64
-12.01
-14.01
-15.70
-16.92
-17.61
-17.90
-18.24
-19.33
-21.71
-25.66
-30.99
-37.18
-43.62
-49.80
-55.23
-59.32
-61.31
-60.39
-55.98
-47.91
-36.66
-23.21
-8.94
4.64
16.15
24.39
28.82
29.60
27.62
24.24
20.80
18.05
16.01
14.30
12.53
10.88
9.99
10.59
12.94
16.53
20.30
23.06
24.26
24.06
23.22
22.70
22.94
23.75
24.34
23.62
20.79
15.72
9.02
1.89
-4.35
-8.80
-11.28
-12.29
-12.68
-13.03
-13.39
-13.40
-12.60
-11.02
-9.25
-8.12
-8.21
-9.45
-11.38
-13.41
-15.40
-17.56
-20.20
-23.52
-27.33
-31.47
-36.02
-41.29
-47.43
-53.82
-58.82
-60.34
-56.77
-47.89
-35.04
-20.51
-6.56
5.42
14.87
21.85
26.54
29.02
29.35
27.69
24.49
20.30
15.75
11.49
8.20
6.59
7.10
9.77
14.09
19.23
24.34
28.80
32.36
35.00
36.71
37.39
36.87
35.03
31.89
27.68
22.81
17.90
13.56
10.30
8.22
7.04
6.23
5.30
4.26
3.57
3.72
4.91
6.69
8.11
8.28
6.84
4.09
0.90
-1.92
-3.95
-5.34
-6.59
-8.15
-10.31
-13.06
-16.24
-19.84
-23.85
-28.39
-33.49
-38.93
-44.36
-49.35
-53.61
-56.88
-58.89
-59.13
-56.87
-51.39
-42.44
-30.56
-17.08
-3.76
7.98
17.39
24.54
29.84
33.54
35.37
34.76
31.27
25.24
17.90
11.08
6.57
5.34
7.35
11.67
16.89
21.81
25.75
28.59
30.57
32.06
33.29
34.31
35.05
35.22
34.47
32.52
29.29
24.95
20.01
15.06
10.64
7.18
4.95
3.99
4.09
4.78
5.44
5.51
4.69
3.17
1.40
-0.05
-0.85
-1.15
-1.45
-2.41
-4.51
-7.95
-12.52
-17.63
-22.56
-26.43
-28.73
-29.44
-29.12
-28.83
-29.77
-32.91
-38.42
-45.60
-52.78
-57.76
-58.47
-53.76
-43.87
-30.35
-15.59
-1.77
9.82
19.03
26.42
32.63
37.74
41.10
41.79
39.32
34.03
27.12
20.26
14.87
11.79
11.13
12.37
14.90
18.19
21.98
26.10
30.27
33.92
36.36
37.07
35.97
33.46
30.27
27.08
24.24
21.69
19.19
16.46
13.52
10.66
8.40
7.09
6.79
7.17
7.65
7.68
6.90
5.28
3.06
0.66
-1.66
-3.94
-6.54
-9.82
-13.90
-18.35
-22.33
-24.96
-25.79
-25.17
-24.17
-24.19
-26.35
-31.04
-37.81
-45.58
-53.08
-59.19
-63.09
-64.05
-61.41
-54.63
-43.61
-28.94
-12.25
4.28
18.25
27.96
32.86
33.72
32.04
29.37
26.70
24.24
21.68
18.74
15.49
12.59
10.84
10.79
12.38
15.09
18.19
21.26
24.31
27.69
31.62
35.78
39.29
41.03
40.09
36.32
30.34
23.47
17.10
12.28
9.42
8.42
8.86
10.18
11.79
13.06
13.36
12.13
9.27
5.21
0.90
-2.60
-4.57
-4.90
-4.20
-3.41
-3.46
-4.84
-7.54
-11.09
-14.94
-18.63
-21.95
-24.99
-27.90
-30.98
-34.52
-38.73
-43.76
-49.40
-54.96
-59.29
-61.07
-59.24
-53.34
-43.79
-31.68
-18.42
-5.40
6.44
16.61
24.90
31.24
35.46
37.39
36.92
34.24
29.89
24.74
19.80
15.95
13.69
13.00
13.51
14.70
16.14
17.75
19.67
22.18
25.45
29.35
33.29
36.45
38.00
37.34
34.50
30.07
24.97
20.05
15.81
12.26
9.16
6.24
3.48
1.13
-0.41
-0.88
-0.43
0.51
1.25
1.27
0.36
-1.28
-3.20
-4.86
-6.00
-6.75
-7.62
-9.24
-12.07
-16.13
-20.92
-25.61
-29.43
-32.00
-33.60
-35.25
-38.12
-42.90
-49.17
-55.33
-59.00
-58.15
-51.91
-41.07
-27.66
-14.13
-2.39
6.81
13.72
19.17
23.81
27.70
30.43
31.29
29.68
25.44
19.05
11.55
4.40
-0.97
-3.51
-2.85
0.63
5.98
12.09
18.02
23.12
27.05
29.63
30.94
31.13
30.43
29.04
27.16
24.90
22.30
19.38
16.21
12.90
9.69
6.87
4.72
3.37
2.71
2.45
2.22
1.60
0.36
-1.49
-3.69
-5.92
-7.87
-9.44
-10.67
-11.60
-12.22
-12.45
-12.27
-11.93
-11.90
-12.85
-15.34
-19.58
-25.26
-31.67
-37.76
-42.31
-44.15
-42.39
-36.61
-27.17
-15.15
-2.23
9.92
19.99
27.34
31.96
34.22
34.51
33.04
29.92
25.44
20.11
14.71
10.09
6.93
5.51
5.80
7.41
9.87
12.67
15.36
17.67
19.41
20.44
20.76
20.45
19.64
18.48
17.08
15.38
13.24
10.46
7.00
3.01
-1.00
-4.41
-6.68
-7.77
-8.18
-8.70
-10.13
-12.79
-16.43
-20.50
-24.39
-27.73
-30.51
-32.89
-35.00
-37.07
-39.38
-42.38
-46.50
-51.69
-56.94
-60.50
-60.21
-54.54
-43.42
-28.44
-12.34
2.00
12.76
19.59
23.49
26.08
28.62
31.35
33.57
34.05
31.91
27.16
20.71
14.06
8.66
5.45
4.70
6.23
9.56
14.03
19.01
23.68
27.30
29.38
29.79
28.81
27.07
25.02
22.81
20.26
17.11
13.33
9.16
5.05
1.33
-1.92
-5.01
-8.37
-12.33
-16.79
-21.24
-24.93
-27.13
-27.58
-26.75
-25.65
-25.48
-27.10
-30.62
-35.51
-40.95
-46.28
-51.16
-55.37
-58.44
-59.29
-56.67
-49.73
-38.59
-24.65
-9.98
3.41
14.44
22.97
29.42
33.98
36.30
35.76
31.95
25.32
17.20
9.47
3.84
1.23
1.70
4.52
8.69
13.37
18.13
22.82
27.40
31.54
34.67
36.08
35.25
32.28
27.94
23.39
19.58
16.84
14.75
12.36
8.92
4.28
-0.87
-5.41
-8.18
-8.77
-7.64
-5.94
-5.03
-5.75
-8.11
-11.34
-14.47
-16.88
-18.65
-20.45
-23.08
-27.03
-32.20
-38.03
-43.69
-48.31
-50.92
-50.52
-46.25
-37.77
-25.53
-10.99
3.90
17.09
27.19
33.57
36.41
36.38
34.31
31.03
27.16
23.07
18.84
14.55
10.42
7.08
5.44
6.23
9.54
14.66
20.38
25.46
29.23
31.64
33.01
33.52
32.93
30.84
26.97
21.68
15.93
10.95
7.68
6.18
5.72
5.10
3.40
0.31
-3.76
-7.92
-11.38
-13.64
-14.73
-15.04
-14.99
-15.01
-15.40
-16.34
-18.06
-20.67
-24.17
-28.50
-33.40
-38.56
-43.40
-47.08
-48.37
-46.12
-39.62
-29.05
-15.62
-1.23
12.08
22.79
30.22
34.42
35.82
34.81
31.61
26.52
20.14
13.61
8.28
5.33
5.34
8.08
12.80
18.26
23.28
27.02
29.09
29.63
29.19
28.35
27.52
26.59
25.09
22.46
18.54
13.69
8.72
4.50
1.50
-0.32
-1.40
-2.24
-3.15
-4.25
-5.56
-7.06
-8.73
-10.57
-12.55
-14.66
-16.94
-19.38
-21.83
-24.07
-25.75
-26.90
-27.99
-30.04
-33.97
-40.09
-47.48
-54.19
-57.86
-56.69
-50.24
-39.49
-26.31
-12.61
0.15
11.21
20.16
26.72
30.60
31.70
30.49
27.80
24.72
22.09
20.24
18.93
17.81
16.69
15.77
15.45
16.03
17.44
19.36
21.35
23.27
25.19
27.35
29.66
31.64
32.39
31.02
27.28
21.72
15.69
10.65
7.58
6.55
6.85
7.39
7.29
6.16
4.18
1.95
0.06
-1.04
-1.39
-1.48
-2.10
-4.08
-7.82
-13.04
-18.88
-24.11
-27.75
-29.55
-30.06
-30.30
-31.30
-33.60
-37.23
-41.81
-46.75
-51.21
-54.21
-54.61
-51.32
-43.91
-32.73
-19.07
-4.81
8.16
18.38
25.22
28.87
30.04
29.56
28.18
26.32
24.19
21.89
19.52
17.41
16.01
15.74
16.71
18.68
20.95
22.75
23.65
23.81
23.91
24.86
27.15
30.43
33.61
35.21
34.11
30.24
24.41
18.22
13.18
10.02
8.62
8.29
8.22
7.90
7.10
5.74
3.73
0.97
-2.41
-5.92
-8.89
-10.59
-10.76
-9.73
-8.29
-7.32
-7.32
-8.37
-10.26
-12.70
-15.63
-19.03
-22.84
-26.86
-30.84
-34.69
-38.63
-42.91
-47.71
-52.54
-56.20
-57.11
-53.92
-46.17
-34.65
-21.06
-7.45
4.62
14.41
21.93
27.44
31.02
32.31
30.98
27.12
21.54
15.69
11.12
8.83
9.04
11.18
14.36
17.77
21.00
23.95
26.61
28.86
30.52
31.29
31.04
29.72
27.46
24.41
20.82
16.99
13.17
9.71
6.97
5.30
4.83
5.36
6.28
6.88
6.59
5.20
2.99
0.58
-1.37
-2.45
-2.61
-2.24
-1.90
-2.09
-3.15
-5.15
-8.02
-11.52
-15.25
-18.82
-21.95
-24.62
-26.98
-29.39
-32.18
-35.74
-40.33
-45.76
-51.34
-55.68
-57.05
-53.94
-45.84
-33.47
-18.79
-4.30
7.89
16.67
22.17
25.35
27.28
28.54
28.99
28.10
25.38
20.88
15.37
10.21
6.67
5.51
6.66
9.43
12.93
16.57
20.28
24.31
28.84
33.57
37.64
39.92
39.47
35.99
30.09
23.11
16.63
11.91
9.45
8.92
9.31
9.55
8.89
7.08
4.42
1.41
-1.54
-4.08
-6.08
-7.45
-8.25
-8.59
-8.76
-9.01
-9.63
-10.77
-12.50
-14.75
-17.26
-19.71
-21.78
-23.33
-24.55
-25.98
-28.37
-32.39
-38.20
-45.09
-51.59
-55.63
-55.47
-50.18
-40.25
-27.37
-13.73
-1.32
8.67
15.92
20.62
23.15
23.81
22.91
20.90
18.31
15.65
13.13
10.70
8.31
6.18
4.93
5.23
7.30
10.66
14.29
17.24
19.11
20.19
21.18
22.53
24.21
25.62
26.13
25.24
22.95
19.59
15.55
11.26
7.16
3.62
1.01
-0.50
-1.23
-1.87
-3.15
-5.44
-8.40
-11.05
-12.34
-11.79
-9.85
-7.80
-6.98
-8.08
-10.77
-13.87
-16.10
-16.88
-16.70
-16.88
-18.93
-23.52
-30.16
-37.54
-44.09
-48.66
-50.68
-49.94
-46.25
-39.43
-29.55
-17.35
-4.37
7.60
17.06
23.26
26.52
27.84
28.22
28.24
27.83
26.51
23.68
19.06
12.85
5.92
-0.33
-4.36
-5.02
-2.12
3.43
9.91
15.54
19.22
20.90
21.31
21.44
21.89
22.60
22.98
22.35
20.39
17.23
13.41
9.37
5.31
1.31
-2.64
-6.29
-9.19
-10.86
-11.18
-10.50
-9.61
-9.31
-10.13
-12.05
-14.66
-17.38
-19.69
-21.42
-22.62
-23.56
-24.70
-26.37
-28.86
-32.16
-35.97
-39.53
-41.85
-41.76
-38.33
-31.18
-20.69
-8.06
5.08
17.01
26.24
32.03
34.29
33.63
31.04
27.59
24.01
20.63
17.32
13.88
10.20
6.52
3.41
1.52
1.27
2.62
5.20
8.46
11.92
15.24
18.08
20.09
20.88
20.29
18.40
15.57
12.21
8.64
5.10
1.76
-1.17
-3.46
-5.18
-6.60
-8.27
-10.82
-14.41
-18.63
-22.63
-25.53
-26.94
-27.14
-27.01
-27.65
-29.90
-33.96
-39.43
-45.49
-51.27
-56.04
-59.37
-60.82
-59.84
-55.80
-48.12
-36.86
-22.88
-7.84
6.24
17.63
25.48
29.91
31.67
31.69
30.57
28.56
25.74
22.19
18.23
14.33
11.02
8.77
8.00
8.94
11.59
15.57
20.16
24.40
27.41
28.75
28.49
27.23
25.63
24.11
22.66
20.97
18.63
15.29
10.77
5.17
-1.08
-7.32
-12.62
-16.10
-17.36
-16.73
-15.26
-14.29
-14.84
-17.03
-20.17
-23.14
-25.11
-26.09
-26.82
-28.49
-32.01
-37.71
-45.02
-52.71
-59.06
-62.13
-60.40
-53.25
-41.28
-26.28
-10.73
3.12
13.95
21.66
26.93
30.47
32.54
32.74
30.60
26.11
20.10
13.98
9.28
6.96
7.07
9.06
12.12
15.79
19.95
24.68
29.92
35.08
39.19
41.25
40.83
38.14
33.88
28.84
23.50
17.93
12.10
6.20
0.80
-3.27
-5.41
-5.65
-4.69
-3.61
-3.48
-4.94
-7.87
-11.67
-15.45
-18.60
-20.92
-22.74
-24.69
-27.26
-30.62
-34.52
-38.62
-42.73
-46.82
-50.67
-53.50
-53.85
-49.90
-40.62
-26.47
-9.59
6.98
20.44
29.33
33.82
35.19
34.79
33.40
31.00
27.16
21.78
15.46
9.45
5.28
3.98
5.83
10.14
15.63
21.00
25.46
28.93
31.82
34.48
36.72
37.78
36.63
32.79
26.66
19.50
12.99
8.42
6.16
5.69
5.91
5.67
4.24
1.55
-1.86
-5.29
-8.13
-10.06
-11.20
-11.90
-12.56
-13.47
-14.79
-16.68
-19.23
-22.51
-26.55
-31.22
-36.30
-41.37
-45.78
-48.58
-48.62
-44.95
-37.13
-25.59
-11.71
2.54
15.28
25.28
32.07
35.90
37.32
36.77
34.53
30.87
26.33
21.69
17.83
15.37
14.49
14.96
16.39
18.40
20.87
23.77
27.05
30.52
33.79
36.29
37.33
36.32
32.99
27.59
21.06
14.78
10.04
7.42
6.46
5.93
4.55
1.82
-1.73
-4.93
-6.67
-6.69
-5.77
-5.19
-5.87
-7.95
-10.70
-13.11
-14.54
-15.12
-15.64
-17.21
-20.60
-26.05
-33.22
-41.25
-48.92
-54.71
-56.98
-54.40
-46.41
-33.73
-18.22
-2.44
11.34
21.77
28.57
32.33
33.95
34.08
32.94
30.48
26.59
21.58
16.08
11.07
7.61
6.51
8.07
12.11
17.97
24.75
31.45
37.02
40.62
41.62
39.84
35.66
30.00
23.91
18.41
14.09
11.11
9.37
8.54
8.15
7.70
6.86
5.37
3.29
0.94
-1.32
-3.25
-4.84
-6.33
-7.95
-9.98
-12.52
-15.41
-18.24
-20.46
-21.58
-21.60
-21.12
-21.34
-23.62
-28.72
-36.13
-43.99
-49.60
-50.32
-44.82
-33.52
-18.42
-2.44
11.72
22.33
28.93
32.00
32.58
31.62
29.71
27.14
24.05
20.63
17.11
13.79
10.95
8.76
7.43
7.20
8.26
10.70
14.36
18.80
23.31
27.11
29.44
29.80
28.11
24.74
20.40
15.92
11.94
8.68
5.97
3.42
0.67
-2.25
-4.91
-6.76
-7.43
-7.02
-6.14
-5.53
-5.67
-6.67
-8.20
-9.85
-11.44
-13.15
-15.31
-18.20
-21.87
-26.17
-30.74
-35.07
-38.53
-40.22
-39.32
-35.15
-27.77
-17.89
-6.84
3.94
13.31
20.59
25.54
28.22
28.79
27.43
24.52
20.50
15.90
11.12
6.57
2.69
-0.04
-1.26
-0.84
1.09
4.11
7.76
11.68
15.45
18.77
21.26
22.63
22.84
22.06
20.60
18.58
16.01
12.73
8.70
4.25
0.03
-3.20
-5.12
-6.03
-6.69
-7.88
-10.09
-13.20
-16.67
-19.89
-22.51
-24.71
-26.93
-29.68
-33.17
-37.24
-41.51
-45.71
-49.70
-53.24
-55.77
-56.19
-53.21
-46.01
-34.85
-21.15
-7.03
5.42
15.03
21.75
26.28
29.34
31.28
31.91
30.91
28.17
24.14
19.70
15.82
13.27
12.33
12.94
14.77
17.40
20.52
23.83
26.96
29.44
30.73
30.37
28.26
24.80
20.80
17.17
14.52
12.83
11.48
9.64
6.77
2.95
-1.20
-4.83
-7.37
-8.89
-9.99
-11.39
-13.49
-16.08
-18.51
-20.13
-20.63
-20.25
-19.61
-19.36
-19.93
-21.41
-23.68
-26.60
-30.14
-34.36
-39.24
-44.31
-48.69
-51.01
-49.84
-44.12
-33.73
-19.68
-4.02
10.70
22.23
29.30
31.88
31.06
28.31
24.96
21.75
18.71
15.58
12.26
9.10
6.83
6.26
7.80
11.15
15.51
19.83
23.36
25.82
27.36
28.28
28.71
28.45
27.14
24.49
20.66
16.25
12.18
9.16
7.46
6.77
6.46
5.89
4.73
2.97
0.88
-1.22
-3.15
-4.87
-6.51
-8.26
-10.23
-12.50
-14.97
-17.44
-19.58
-21.18
-22.15
-22.64
-23.02
-23.70
-25.05
-27.38
-30.78
-35.01
-39.52
-43.27
-44.89
-43.15
-37.29
-27.49
-14.84
-1.12
11.68
21.93
28.65
31.62
31.33
28.69
24.61
19.86
15.06
10.63
7.00
4.57
3.51
3.71
4.89
6.70
8.97
11.72
14.90
18.39
21.80
24.58
26.25
26.55
25.39
22.87
19.28
14.99
10.71
7.15
4.88
4.13
4.52
5.21
5.24
3.88
0.97
-2.96
-6.98
-10.15
-11.91
-12.46
-12.62
-13.38
-15.40
-18.59
-22.09
-24.84
-26.18
-26.24
-26.05
-26.87
-29.73
-34.67
-40.72
-46.16
-49.11
-48.18
-42.86
-33.74
-21.99
-9.07
3.70
15.33
25.02
32.05
35.68
35.42
31.32
24.31
16.05
8.49
3.21
0.92
1.39
3.71
6.90
10.24
13.49
16.62
19.56
22.15
23.97
24.80
24.55
23.39
21.71
19.93
18.39
17.19
16.26
15.27
13.83
11.55
8.27
4.18
-0.25
-4.30
-7.33
-8.89
-9.09
-8.40
-7.63
-7.62
-9.01
-12.01
-16.30
-21.23
-26.04
-30.12
-33.13
-35.04
-35.99
-36.27
-36.49
-37.36
-39.64
-43.70
-49.14
-54.64
-58.09
-57.41
-51.22
-39.54
-23.83
-6.59
9.49
22.27
30.74
34.93
35.55
33.64
30.07
25.53
20.59
15.79
11.75
8.98
7.77
7.97
9.12
10.70
12.45
14.46
17.01
20.25
23.96
27.50
30.00
30.79
29.66
26.85
23.05
18.95
15.17
12.06
9.75
8.15
7.10
6.30
5.40
4.07
2.07
-0.52
-3.36
-5.89
-7.68
-8.63
-9.04
-9.67
-11.33
-14.58
-19.38
-24.97
-30.17
-33.83
-35.40
-35.32
-34.87
-35.57
-38.45
-43.59
-49.98
-55.91
-59.54
-59.58
-55.53
-47.67
-36.82
-24.17
-11.00
1.45
12.24
20.83
27.05
30.87
32.37
31.68
29.05
25.02
20.40
16.05
12.69
10.73
10.29
11.33
13.72
17.17
21.28
25.45
28.98
31.30
32.28
32.08
31.16
29.90
28.34
26.22
23.28
19.52
15.47
11.99
9.81
9.05
9.05
8.69
7.07
4.04
0.33
-2.84
-4.55
-4.77
-4.43
-4.97
-7.53
-12.31
-18.55
-24.83
-29.77
-32.55
-33.20
-32.46
-31.42
-31.12
-32.17
-34.91
-39.15
-44.35
-49.50
-53.32
-54.33
-51.46
-44.40
-33.76
-20.84
-7.20
5.79
17.12
26.17
32.47
35.73
35.95
33.63
29.61
24.86
20.19
16.08
12.75
10.45
9.52
10.25
12.73
16.64
21.36
26.07
30.04
32.85
34.26
34.23
32.72
29.97
26.29
22.24
18.42
15.32
13.13
11.80
11.04
10.45
9.63
8.38
6.84
5.38
4.43
4.13
4.15
3.77
2.16
-1.09
-5.73
-10.75
-14.83
-16.88
-16.59
-14.57
-12.05
-10.41
-10.52
-12.65
-16.46
-21.24
-26.22
-30.53
-33.57
-34.52
-32.43
-26.45
-16.34
-2.74
12.95
29.09
44.27
57.45
68.17
76.40
82.41
86.52
89.11
90.77
92.32
94.76
98.38
103.29
109.67
117.91
128.26
140.62
154.56
169.62
185.84
202.14
218.06
234.25
251.94
271.47
291.18
307.92
318.34
320.46
310.97
288.71
256.08
218.48
181.31
147.52
117.08
88.03
57.87
19.32
-33.77
-102.42
-181.74
-264.21
-343.48
-415.92
-480.26
-536.84
-593.33
-657.73
-732.58
-813.68
-894.39
-970.15
-1040.18
-1106.41
-1122.50
-1058.48
-917.98
-737.73
-561.32
-414.86
-302.76
-215.67
-139.61
-72.41
-10.28
43.63
85.32
114.77
135.41
151.71
167.70
186.64
208.98
229.51
241.75
243.82
239.91
236.96
240.28
251.60
269.49
290.99
310.64
323.42
328.47
329.47
332.15
341.22
358.78
384.07
413.72
441.59
460.19
464.21
452.35
427.11
393.22
355.77
318.69
283.84
250.93
218.35
184.87
150.46
115.88
81.96
49.25
18.41
-9.46
-32.45
-48.54
-56.25
-55.34
-47.03
-33.76
-18.49
-3.87
8.18
16.55
20.88
21.18
17.77
11.21
2.43
-7.49
-17.41
-26.39
-33.74
-38.99
-41.82
-41.98
-39.38
-34.46
-28.13
-21.70
-16.45
-13.17
-11.95
-12.55
-14.66
-18.27
-23.67
-30.98
-39.86
-49.42
-58.62
-66.70
-73.36
-78.66
-82.76
-85.67
-87.21
-87.31
-86.26
-84.91
-84.36
-85.73
-89.86
-97.10
-107.08
-118.82
-130.64
-140.31
-145.34
-143.67
-134.13
-116.87
-93.58
-66.91
-39.87
-15.11
5.82
22.46
35.17
44.62
51.34
55.53
57.35
57.06
55.22
52.65
49.91
47.05
43.59
38.80
32.51
25.39
18.88
14.57
13.38
14.96
17.95
20.42
20.69
17.93
12.50
5.53
-1.47
-7.28
-11.36
-14.00
-16.01
-18.35
-21.67
-26.18
-31.76
-38.42
-46.32
-55.69
-65.99
-75.56
-81.86
-82.21
-75.20
-61.47
-43.44
-24.36
-6.99
7.32
18.44
26.81
32.77
36.06
36.20
32.95
26.69
18.42
9.66
2.01
-3.21
-5.25
-4.15
-0.98
2.70
5.39
6.23
5.39
3.87
2.89
3.29
5.03
7.29
8.93
8.95
7.05
3.66
-0.39
-4.25
-7.51
-10.29
-12.98
-15.86
-18.88
-21.72
-24.02
-25.79
-27.36
-28.93
-30.12
-29.76
-26.35
-18.97
-8.00
4.91
17.41
27.59
34.73
39.21
41.88
43.27
43.18
40.97
36.20
29.32
21.70
15.31
11.84
11.96
15.17
20.02
24.89
28.54
30.66
31.72
32.37
32.82
32.68
31.13
27.50
21.86
15.13
8.79
4.20
2.06
2.16
3.46
4.51
3.98
1.19
-3.70
-9.68
-15.30
-19.23
-20.83
-20.44
-19.21
-18.68
-20.14
-24.26
-30.99
-39.61
-48.86
-56.93
-61.70
-61.27
-54.58
-41.96
-25.17
-6.94
10.00
23.62
33.05
38.48
40.74
40.87
39.79
37.95
35.54
32.64
29.53
26.91
25.80
26.96
30.44
35.41
40.50
44.42
46.67
47.57
47.76
47.48
46.21
42.82
36.49
27.37
16.83
6.95
-0.51
-4.90
-6.93
-8.21
-10.35
-14.27
-19.77
-25.65
-30.45
-33.08
-33.21
-31.40
-28.56
-25.48
-22.52
-19.72
-16.96
-14.11
-11.25
-8.49
-5.88
-3.50
-1.47
0.15
1.15
1.56
1.48
0.90
-0.11
-1.90
-4.86
-9.36
-15.43
-22.71
-30.48
-37.79
-43.65
-47.22
-47.92
-45.46
-39.96
-31.86
-21.73
-10.22
1.99
14.08
25.23
34.62
41.71
46.42
49.13
50.59
51.64
53.12
55.69
60.04
66.41
74.76
84.31
93.74
101.81
107.60
111.09
112.89
113.88
114.64
115.18
114.88
112.93
108.47
100.98
90.59
78.06
64.84
52.54
42.48
35.38
31.10
29.03
28.48
29.01
30.38
32.21
33.84
34.49
33.79
32.12
30.63
30.23
30.70
30.02
24.87
12.03
-10.07
-40.41
-75.62
-111.05
-142.27
-166.02
-180.65
-185.67
-181.34
-168.48
-148.58
-124.02
-98.01
-74.26
-56.27
-46.42
-45.23
-51.14
-60.89
-70.33
-75.76
-74.99
-67.97
-56.36
-42.74
-29.50
-18.01
-8.59
-0.83
5.82
11.62
16.40
19.87
21.63
21.52
19.68
16.50
12.92
10.11
9.23
10.94
14.99
20.07
24.30
25.94
24.19
19.49
13.25
7.07
2.23
-0.63
-1.36
0.09
3.79
9.65
17.17
25.48
33.54
40.65
46.74
52.16
57.18
61.40
63.66
62.48
56.84
46.92
34.22
20.97
9.23
0.06
-6.81
-12.54
-18.51
-25.34
-32.68
-39.40
-44.27
-46.63
-46.70
-45.43
-43.76
-42.19
-40.65
-38.88
-36.83
-34.93
-33.87
-33.89
-34.38
-33.85
-30.56
-23.47
-12.92
-0.65
10.96
20.01
25.76
28.74
30.13
30.86
31.20
30.79
29.15
26.19
22.21
17.97
14.24
11.63
10.48
10.88
12.67
15.35
18.29
20.85
22.63
23.54
23.80
23.59
22.91
21.61
19.62
17.13
14.44
11.85
9.35
6.57
3.15
-0.89
-5.06
-8.52
-10.58
-11.11
-10.57
-9.75
-9.26
-9.35
-10.02
-11.16
-12.85
-15.18
-18.08
-21.20
-23.95
-25.91
-27.08
-27.94
-29.31
-31.85
-35.59
-39.79
-43.00
-43.72
-40.94
-34.63
-25.75
-15.78
-6.08
2.59
10.16
16.82
22.50
26.75
28.86
28.43
25.78
21.81
17.58
13.71
10.26
7.08
4.27
2.44
2.32
4.25
7.65
11.19
13.47
13.77
12.42
10.54
9.37
9.40
10.33
11.14
10.94
9.50
7.44
5.80
5.28
5.69
5.96
4.77
1.40
-3.55
-8.35
-11.06
-10.61
-7.59
-3.92
-1.83
-2.66
-6.18
-10.91
-15.17
-17.99
-19.47
-20.37
-21.49
-23.08
-24.83
-26.38
-27.71
-29.24
-31.60
-34.90
-38.49
-41.00
-40.85
-36.99
-29.38
-19.06
-7.66
3.12
12.11
18.82
23.39
26.16
27.40
27.22
25.60
22.78
19.21
15.53
12.42
10.35
9.48
9.69
10.68
12.06
13.50
14.80
15.95
17.06
18.34
19.83
21.36
22.54
22.80
21.75
19.32
15.84
11.86
7.92
4.30
0.90
-2.45
-5.82
-8.96
-11.38
-12.66
-12.63
-11.62
-10.20
-9.17
-9.21
-10.51
-12.87
-15.54
-17.70
-18.75
-18.71
-18.29
-18.50
-20.22
-23.69
-28.49
-33.78
-38.73
-42.60
-44.75
-44.46
-40.91
-33.61
-22.92
-10.21
2.32
12.56
19.34
22.87
24.32
25.06
25.76
25.95
24.56
20.77
14.76
7.82
1.89
-1.51
-1.88
0.12
3.21
6.30
8.90
11.17
13.36
15.51
17.16
17.73
16.83
14.54
11.54
8.53
6.18
4.60
3.50
2.26
0.23
-2.95
-7.19
-11.83
-15.92
-18.51
-19.04
-17.61
-14.95
-12.16
-10.27
-9.96
-11.24
-13.60
-16.17
-18.22
-19.43
-19.88
-20.10
-20.64
-22.00
-24.41
-27.83
-31.81
-35.49
-37.80
-37.51
-33.87
-26.75
-16.89
-5.65
5.19
13.97
19.57
21.61
20.73
18.21
15.58
13.86
13.29
13.15
12.41
10.37
7.18
3.85
1.57
1.03
2.02
3.67
5.09
5.80
6.10
6.59
7.81
9.72
11.79
13.20
13.18
11.42
8.16
4.21
0.59
-1.83
-2.68
-2.24
-1.25
-0.65
-0.96
-2.09
-3.48
-4.56
-5.10
-5.47
-6.29
-8.06
-10.75
-13.82
-16.45
-18.02
-18.50
-18.42
-18.71
-20.23
-23.35
-27.76
-32.49
-36.34
-38.25
-37.66
-34.46
-29.08
-22.15
-14.37
-6.41
1.21
8.00
13.54
17.58
20.02
20.92
20.47
18.94
16.70
14.21
12.02
10.51
9.79
9.58
9.29
8.40
6.82
5.06
4.00
4.51
6.82
10.45
14.30
17.42
19.43
20.61
21.45
22.16
22.26
21.05
18.09
13.63
8.68
4.45
1.85
0.94
1.10
1.35
0.99
-0.25
-2.22
-4.56
-7.02
-9.47
-11.95
-14.52
-17.08
-19.30
-20.80
-21.32
-21.10
-20.94
-22.05
-25.32
-30.62
-36.47
-40.33
-39.66
-33.14
-21.30
-6.50
8.19
20.28
28.57
33.32
35.51
36.10
35.55
33.87
30.86
26.56
21.37
15.87
10.67
6.22
2.82
0.65
-0.33
-0.13
1.16
3.52
6.89
11.05
15.47
19.24
21.38
21.31
19.13
15.68
12.04
8.82
6.00
2.93
-0.99
-5.66
-10.25
-13.66
-15.27
-15.49
-15.69
-17.27
-21.00
-26.33
-31.61
-35.00
-35.43
-33.31
-30.23
-28.36
-29.39
-33.70
-40.25
-46.95
-51.49
-52.14
-48.31
-40.64
-30.48
-19.38
-8.52
1.46
10.41
18.16
24.49
28.94
31.04
30.67
28.18
24.24
19.63
14.90
10.25
5.94
2.37
0.22
0.27
2.85
7.68
13.74
19.83
24.95
28.52
30.43
30.72
29.38
26.51
22.38
17.59
12.87
8.82
5.63
2.94
0.23
-2.94
-6.53
-10.01
-12.65
-13.96
-13.90
-13.14
-12.68
-13.41
-15.73
-19.35
-23.56
-27.56
-30.96
-33.93
-36.94
-40.51
-44.80
-49.47
-53.76
-56.59
-56.78
-53.35
-45.91
-34.75
-21.02
-6.40
7.33
18.81
27.41
33.12
36.27
37.17
35.98
32.86
28.12
22.38
16.58
11.64
8.24
6.57
6.42
7.53
9.73
12.93
17.08
21.77
26.25
29.54
30.87
30.06
27.64
24.60
22.01
20.44
19.73
19.21
18.04
15.70
12.15
7.91
3.75
0.43
-1.64
-2.48
-2.69
-3.07
-4.43
-7.20
-11.20
-15.72
-19.75
-22.50
-23.71
-23.88
-24.06
-25.46
-28.83
-34.16
-40.74
-47.36
-52.71
-55.64
-55.28
-51.16
-43.30
-32.21
-18.80
-4.43
9.52
21.79
31.42
37.89
41.18
41.74
40.23
37.29
33.29
28.35
22.54
16.29
10.58
6.85
6.28
9.25
14.93
21.71
27.86
32.19
34.53
35.27
34.92
33.68
31.43
28.03
23.70
19.04
14.82
11.61
9.51
8.07
6.61
4.51
1.61
-1.74
-4.81
-6.84
-7.59
-7.54
-7.59
-8.65
-11.20
-14.91
-18.91
-22.44
-25.30
-27.96
-31.48
-36.65
-43.43
-50.84
-57.07
-60.16
-58.74
-52.47
-42.16
-29.44
-16.01
-3.22
8.36
18.58
27.32
33.98
37.71
37.81
34.29
28.16
21.03
14.66
10.32
8.49
9.02
11.45
15.30
20.08
25.44
30.78
35.39
38.54
39.66
38.56
35.60
31.56
27.51
24.41
22.70
22.12
21.87
21.05
19.05
15.74
11.64
7.42
3.84
1.30
-0.21
-1.00
-1.68
-2.85
-4.98
-8.15
-12.09
-16.14
-19.68
-22.25
-23.85
-24.89
-25.95
-27.45
-29.56
-32.14
-34.90
-37.48
-39.28
-39.42
-36.64
-29.63
-17.58
-0.79
19.18
39.93
58.96
74.48
85.94
93.65
98.38
100.73
100.96
99.34
96.57
94.05
93.71
97.41
106.16
119.77
136.86
155.25
172.61
187.06
197.65
204.57
208.99
212.45
216.02
219.55
221.48
219.32
210.77
194.53
170.86
141.10
107.19
70.90
34.02
-1.45
-32.88
-57.49
-73.07
-79.07
-77.07
-70.30
-62.65
-57.33
-56.07
-58.87
-64.49
-71.12
-76.87
-80.42
-80.97
-78.43
-73.34
-66.87
-60.67
-56.60
-56.20
-60.17
-67.96
-77.63
-86.49
-92.05
-93.06
-89.86
-84.13
-77.99
-73.02
-69.72
-67.65
-65.98
-64.10
-61.94
-59.71
-57.44
-54.85
-51.22
-45.98
-39.09
-31.27
-23.88
-18.31
-15.51
-15.71
-18.43
-22.74
-27.68
-32.59
-37.04
-40.86
-43.88
-45.93
-46.71
-45.82
-42.94
-38.01
-31.39
-23.88
-16.64
-10.86
-7.46
-6.91
-9.20
-13.76
-19.72
-25.97
-31.32
-34.99
-36.84
-37.67
-39.05
-42.84
-50.32
-61.55
-74.98
-87.62
-95.82
-96.18
-86.54
-66.92
-39.77
-9.68
17.79
37.76
47.68
48.07
41.97
33.67
26.77
23.20
22.63
23.45
23.58
21.50
16.54
8.88
-0.70
-11.34
-22.10
-32.32
-41.50
-49.29
-55.50
-59.96
-62.67
-63.93
-64.54
-65.43
-67.28
-70.05
-72.85
-74.31
-73.55
-70.69
-67.05
-64.67
-65.09
-68.67
-74.32
-79.89
-83.14
-82.61
-78.21
-71.31
-64.41
-60.09
-59.92
-63.69
-69.08
-72.43
-70.09
-59.80
-41.42
-17.01
9.74
34.04
50.63
55.16
45.62
23.83
-4.16
-29.73
-44.99
-45.88
-34.03
-15.47
2.53
14.91
20.80
22.73
24.24
27.57
32.78
38.49
43.41
47.38
51.11
55.26
59.65
63.20
64.42
62.44
57.44
50.71
44.07
38.92
35.92
34.68
33.96
32.10
27.33
17.94
2.36
-20.65
-52.16
-92.29
-139.57
-190.02
-237.20
-273.48
-292.46
-291.51
-272.98
-243.29
-210.31
-180.05
-154.82
-133.45
-113.05
-91.28
-67.61
-42.77
-17.45
8.75
37.03
67.95
100.10
129.80
152.05
162.61
159.86
145.81
125.49
105.27
90.60
84.35
86.04
92.64
100.19
105.51
107.36
106.30
103.95
101.71
100.20
99.50
99.92
102.51
108.75
119.54
134.33
151.11
166.98
179.20
185.50
183.99
173.01
151.54
120.09
81.60
41.34
5.35
-21.96
-39.77
-51.21
-61.73
-76.38
-97.53
-124.28
-153.31
-180.76
-203.71
-220.61
-230.92
-234.24
-229.79
-216.61
-194.25
-163.44
-126.40
-86.50
-47.37
-12.03
17.58
40.47
56.27
64.87
66.27
60.74
49.09
32.99
14.84
-2.54
-16.59
-25.73
-29.77
-29.93
-28.29
-26.92
-27.19
-29.44
-33.14
-37.16
-40.36
-41.72
-40.46
-36.04
-28.10
-16.54
-1.66
15.80
34.49
52.52
67.90
78.95
84.89
86.16
83.99
79.84
74.63
68.48
61.05
52.35
43.16
35.10
29.89
28.45
30.39
34.22
38.14
41.00
42.69
43.85
45.18
46.88
48.23
48.05
45.18
39.20
30.70
21.05
12.00
5.02
0.80
-0.96
-1.12
-0.72
-0.19
0.84
3.30
8.13
15.68
25.54
36.50
46.65
52.79
50.71
36.30
7.54
-32.96
-77.11
-113.19
-129.89
-121.16
-89.11
-42.98
4.89
44.37
71.03
86.22
94.55
100.60
106.76
113.19
119.01
123.40
126.00
126.59
124.49
118.64
108.20
93.46
76.33
59.92
47.33
40.53
39.71
43.42
49.36
55.49
60.47
63.86
65.74
66.36
65.91
64.44
61.83
57.88
52.47
45.76
38.42
31.42
25.60
21.11
17.44
13.79
9.74
5.74
2.90
2.11
3.24
5.00
5.48
3.22
-2.03
-9.04
-15.65
-19.84
-20.14
-16.26
-9.30
-1.77
2.38
-1.90
-19.91
-55.60
-109.65
-178.09
-252.04
-319.65
-369.23
-392.85
-388.68
-361.21
-318.69
-269.99
-221.46
-175.74
-132.58
-90.46
-48.04
-4.41
41.19
89.75
141.89
196.69
250.94
299.46
336.72
358.79
365.00
357.97
342.45
323.22
303.42
283.99
264.08
242.39
218.24
192.13
165.45
139.87
116.69
96.41
78.61
62.22
46.07
29.57
12.98
-2.60
-15.71
-25.15
-30.66
-32.98
-33.47
-33.50
-33.92
-35.01
-36.69
-38.86
-41.53
-44.64
-47.65
-49.70
-49.76
-47.12
-41.85
-34.78
-27.24
-20.60
-15.94
-13.64
-13.53
-14.88
-16.93
-19.01
-20.85
-22.53
-24.12
-25.40
-25.72
-24.34
-20.84
-15.61
-9.73
-4.67
-1.57
-0.76
-1.76
-3.59
-5.35
-6.51
-7.08
-7.32
-7.49
-7.79
-8.40
-9.71
-12.20
-16.46
-22.71
-30.43
-38.52
-45.43
-49.81
-50.98
-49.14
-45.19
-40.32
-35.61
-31.77
-29.21
-27.91
-27.54
-27.38
-26.46
-23.78
-18.87
-11.94
-4.00
3.67
10.13
15.18
19.44
23.74
28.63
33.89
38.59
41.59
41.80
38.68
32.26
23.20
12.75
2.61
-5.48
-10.18
-11.06
-8.82
-4.82
-0.59
2.92
5.62
8.08
11.05
14.87
19.43
24.19
28.66
32.57
36.13
39.85
44.30
49.78
56.14
62.93
69.46
75.13
79.49
82.27
83.39
82.86
80.64
76.46
69.69
59.38
44.53
24.54
-0.32
-28.86
-59.34
-90.08
-120.51
-151.70
-186.03
-225.76
-271.06
-318.55
-361.33
-390.82
-399.67
-384.75
-348.28
-296.64
-237.38
-176.26
-115.70
-55.74
3.64
60.59
111.22
151.39
179.15
196.03
206.03
213.09
218.43
219.73
212.40
192.63
160.10
118.81
75.71
37.81
9.41
-8.95
-19.76
-26.42
-31.38
-35.23
-37.28
-36.80
-33.95
-30.01
-26.62
-24.86
-24.64
-24.94
-24.65
-23.46
-22.24
-22.68
-26.13
-32.71
-40.84
-47.78
-50.74
-48.13
-40.29
-29.18
-17.61
-7.98
-1.37
2.38
4.33
5.44
6.06
5.85
4.15
0.68
-4.26
-9.68
-14.36
-17.32
-18.03
-16.60
-13.46
-9.24
-4.63
-0.23
3.43
5.91
7.05
6.90
5.79
4.19
2.53
1.22
0.61
0.92
2.04
3.56
4.57
4.02
1.16
-4.03
-10.50
-16.64
-20.74
-21.85
-20.09
-16.37
-12.02
-8.13
-5.34
-3.92
-3.99
-5.59
-8.68
-12.92
-17.73
-22.37
-26.18
-29.07
-31.45
-34.12
-37.80
-42.76
-48.42
-53.43
-56.14
-55.20
-50.17
-41.71
-31.33
-20.67
-10.96
-2.72
4.14
9.70
13.81
15.99
15.83
13.39
9.46
5.33
2.26
1.03
1.68
3.71
6.33
8.98
11.34
13.28
14.80
15.88
16.48
16.62
16.41
15.95
15.36
14.69
13.99
13.28
12.38
10.78
7.90
3.43
-2.23
-7.86
-11.91
-13.31
-12.15
-9.67
-7.64
-7.25
-8.41
-10.17
-11.34
-11.59
-11.54
-12.18
-14.27
-17.53
-21.04
-23.79
-25.55
-26.89
-28.94
-32.64
-38.13
-44.61
-50.45
-53.83
-53.29
-48.12
-38.67
-26.26
-12.64
0.45
11.69
20.41
26.42
29.82
30.93
30.13
27.86
24.56
20.72
16.71
12.91
9.67
7.28
6.01
5.85
6.67
8.19
10.17
12.41
14.89
17.52
20.17
22.70
24.84
26.32
26.84
26.15
24.15
21.10
17.53
14.14
11.56
10.07
9.50
9.35
9.04
8.08
6.22
3.48
0.22
-2.90
-5.17
-6.10
-5.80
-4.93
-4.59
-5.78
-8.99
-13.96
-19.87
-25.59
-30.10
-32.90
-34.15
-34.47
-34.82
-36.06
-38.62
-42.35
-46.51
-49.98
-51.50
-49.98
-44.81
-35.84
-23.62
-9.41
4.96
17.40
26.21
30.57
30.98
28.91
26.23
24.33
23.57
23.40
22.82
21.15
18.46
15.63
13.70
13.48
14.99
17.66
20.73
23.75
26.67
29.53
32.14
33.82
33.68
31.15
26.42
20.55
14.98
11.00
9.10
8.98
9.86
10.88
11.45
11.31
10.37
8.66
6.22
3.27
0.26
-2.32
-4.01
-4.59
-4.07
-2.86
-1.66
-1.33
-2.62
-5.79
-10.43
-15.53
-19.97
-22.94
-24.35
-24.75
-24.99
-25.88
-27.85
-31.02
-35.15
-39.94
-44.78
-48.78
-50.60
-48.80
-42.48
-31.89
-18.63
-5.16
6.10
13.80
18.10
20.43
22.33
24.52
26.57
27.19
25.43
21.41
16.53
12.49
10.39
10.24
11.21
12.53
13.97
15.96
19.08
23.37
28.00
31.69
33.48
33.10
31.20
28.64
26.06
23.56
20.97
18.05
15.01
12.31
10.46
9.71
9.80
10.18
10.23
9.60
8.42
7.12
6.20
5.83
5.85
5.69
4.66
2.30
-1.39
-5.77
-9.83
-12.79
-14.39
-15.05
-15.56
-16.56
-18.23
-20.26
-22.21
-23.96
-25.93
-28.76
-32.91
-38.35
-44.30
-49.58
-52.82
-52.86
-49.02
-41.25
-30.34
-17.83
-5.56
4.91
12.93
18.74
23.03
26.30
28.31
28.34
25.66
20.31
13.35
6.47
1.32
-1.28
-1.35
0.37
3.15
6.55
10.42
14.62
18.79
22.32
24.62
25.46
25.06
23.98
22.87
22.15
21.81
21.53
20.87
19.55
17.59
15.30
13.20
11.76
11.15
11.05
10.79
9.69
7.34
4.06
0.66
-1.92
-3.06
-2.95
-2.25
-1.79
-2.09
-3.24
-5.05
-7.51
-10.87
-15.43
-21.24
-27.53
-32.89
-35.91
-35.91
-33.49
-30.38
-28.78
-30.17
-34.65
-40.62
-45.53
-46.77
-42.60
-32.95
-19.28
-4.11
10.07
21.45
29.49
34.60
37.62
39.20
39.36
37.71
33.91
28.14
21.12
13.98
7.77
3.14
0.45
-0.23
1.12
4.48
9.62
15.94
22.49
28.16
31.93
33.13
31.56
27.73
22.69
17.76
14.09
12.21
11.76
11.81
11.54
10.53
9.01
7.51
6.28
5.02
3.14
0.12
-3.87
-7.95
-11.09
-12.65
-12.85
-12.55
-12.80
-14.15
-16.46
-19.07
-21.25
-22.60
-23.25
-23.79
-24.85
-26.90
-30.12
-34.40
-39.25
-43.98
-47.71
-49.40
-48.32
-44.14
-37.01
-27.56
-16.57
-4.81
7.01
18.13
27.84
35.30
39.75
40.73
38.14
32.35
24.27
15.29
7.06
1.25
-0.94
0.72
5.47
11.84
18.25
23.61
27.64
30.52
32.63
33.95
34.13
32.69
29.40
24.61
19.12
13.92
9.78
6.98
5.26
4.07
2.93
1.49
-0.30
-2.33
-4.48
-6.59
-8.48
-10.04
-11.17
-12.00
-12.84
-14.04
-15.81
-18.12
-20.67
-23.23
-25.71
-28.32
-31.42
-35.25
-39.73
-44.18
-47.48
-48.24
-45.26
-37.98
-26.93
-13.62
-0.27
11.13
19.35
24.34
26.93
28.20
28.76
28.47
26.75
23.07
17.51
10.91
4.69
0.20
-1.68
-0.93
1.81
5.61
9.76
14.02
18.42
22.85
26.77
29.22
29.24
26.46
21.40
15.27
9.46
4.92
1.87
-0.16
-1.93
-4.07
-6.81
-10.06
-13.59
-17.08
-20.13
-22.37
-23.56
-23.63
-23.09
-22.76
-23.62
-26.52
-31.76
-39.00
-47.19
-54.78
-59.91
-60.89
-56.73
-47.46
-34.28
-19.23
-4.50
8.19
18.15
25.68
31.48
35.99
39.01
39.76
37.50
32.19
24.89
17.43
11.72
8.86
8.90
10.91
13.65
16.37
18.93
21.77
25.27
29.26
33.01
35.48
35.94
34.18
30.63
25.98
20.86
15.61
10.35
5.00
-0.44
-5.87
-10.99
-15.35
-18.36
-19.64
-19.29
-18.13
-17.51
-18.79
-22.61
-28.44
-34.69
-39.60
-42.16
-42.88
-43.56
-46.33
-52.63
-62.03
-72.46
-80.93
-84.69
-82.02
-72.41
-56.22
-34.22
-7.75
20.87
47.99
69.25
80.89
81.39
72.43
58.16
43.46
31.86
24.47
20.40
18.17
17.13
17.78
21.05
27.22
35.25
43.24
49.43
52.94
53.89
53.07
51.06
48.11
44.15
39.25
33.75
28.29
23.49
19.66
16.83
14.67
12.77
10.75
8.24
5.08
1.30
-2.79
-6.75
-10.14
-12.86
-15.16
-17.42
-19.99
-22.86
-25.67
-27.93
-29.41
-30.34
-31.48
-33.85
-38.28
-45.12
-53.81
-62.92
-70.38
-73.94
-71.86
-63.56
-49.88
-32.67
-14.19
3.69
19.69
33.06
43.18
49.35
50.94
48.01
41.58
33.56
26.11
20.87
18.51
18.74
20.79
23.93
27.74
32.03
36.58
41.04
44.99
48.09
50.18
51.12
50.85
49.35
46.65
42.89
38.32
33.37
28.38
23.74
19.72
16.52
14.16
12.55
11.49
10.81
10.31
9.90
9.49
8.84
7.52
5.04
1.16
-3.97
-9.78
-15.41
-20.10
-23.42
-25.42
-26.40
-26.93
-27.51
-28.66
-30.95
-34.89
-40.82
-48.69
-57.76
-66.59
-73.28
-75.88
-72.89
-63.80
-49.33
-31.31
-12.31
5.22
19.56
30.08
37.10
41.54
44.18
45.29
44.65
41.82
36.81
30.23
23.40
17.78
14.51
13.97
15.83
19.36
23.83
28.75
33.71
38.33
42.06
44.23
44.36
42.43
38.99
34.95
31.30
28.46
26.35
24.42
22.02
18.78
14.90
11.07
7.97
6.13
5.54
5.71
6.08
6.09
5.54
4.36
2.61
0.36
-2.38
-5.46
-8.77
-12.13
-15.39
-18.52
-21.45
-24.16
-26.58
-28.62
-30.38
-32.20
-34.67
-38.55
-44.27
-51.62
-59.52
-66.07
-69.00
-66.51
-57.87
-43.69
-25.95
-7.24
9.97
23.80
33.30
38.28
39.24
37.06
32.80
27.63
22.51
18.11
14.82
12.78
12.07
12.65
14.46
17.32
21.01
25.28
29.89
34.56
38.86
42.26
44.09
43.95
41.72
37.79
32.83
27.54
22.53
18.22
14.75
12.10
10.07
8.37
6.60
4.59
2.45
0.59
-0.54
-0.69
-0.01
1.01
1.70
1.49
0.17
-2.25
-5.52
-9.36
-13.50
-17.69
-21.52
-24.63
-26.79
-28.11
-29.23
-31.09
-34.62
-40.22
-47.38
-54.63
-59.88
-61.11
-57.11
-47.96
-34.99
-20.21
-5.72
6.97
17.16
24.70
29.78
32.62
33.43
32.56
30.35
27.18
23.43
19.37
15.32
11.95
10.13
10.59
13.60
18.47
23.82
28.15
30.62
31.39
31.45
31.85
32.98
34.34
34.79
33.32
29.56
24.04
17.89
12.36
8.25
5.56
3.68
1.63
-1.26
-5.06
-9.09
-12.28
-13.70
-13.15
-11.24
-9.15
-8.13
-8.78
-11.03
-14.31
-17.96
-21.54
-24.93
-28.18
-31.22
-33.96
-36.37
-38.68
-41.35
-44.92
-49.69
-55.36
-60.94
-64.90
-65.48
-61.33
-51.96
-38.14
-21.72
-5.33
8.63
18.70
24.78
27.74
28.83
28.70
27.38
24.33
19.15
12.31
5.01
-1.34
-5.67
-7.81
-8.25
-7.65
-6.20
-3.66
0.43
6.11
12.72
19.01
23.66
25.74
25.12
22.31
18.14
13.47
8.84
4.59
0.93
-1.94
-3.82
-4.63
-4.53
-3.95
-3.56
-4.05
-5.71
-8.41
-11.68
-14.83
-17.42
-19.36
-20.84
-22.19
-23.67
-25.44
-27.62
-30.55
-34.67
-40.27
-46.90
-53.19
-56.91
-55.81
-48.63
-35.84
-19.61
-2.90
11.52
22.03
28.42
31.40
32.04
31.03
28.56
24.49
18.80
11.96
4.88
-1.24
-5.44
-7.13
-6.38
-3.68
0.26
4.75
9.18
12.89
15.35
16.20
15.54
13.86
11.83
9.63
6.44
0.73
-8.96
-22.93
-39.74
-56.32
-69.18
-75.83
-75.53
-69.36
-59.31
-47.22
-34.29
-21.19
-8.60
2.28
9.88
13.01
11.44
6.29
-0.54
-7.24
-12.95
-17.90
-22.96
-28.92
-35.77
-42.60
-47.83
-49.85
-47.55
-40.59
-29.62
-16.10
-2.00
10.81
20.99
28.16
32.81
35.71
37.33
37.56
35.88
32.09
26.74
21.12
16.91
15.39
16.82
20.52
25.20
29.67
33.24
35.81
37.63
38.84
39.30
38.63
36.51
32.95
28.39
23.76
19.90
17.34
16.01
15.28
14.24
12.21
8.98
4.91
0.76
-2.63
-4.74
-5.50
-5.42
-5.28
-5.82
-7.59
-10.57
-14.36
-18.33
-21.93
-25.01
-27.71
-30.40
-33.47
-37.14
-41.51
-46.45
-51.53
-55.87
-58.17
-57.03
-51.37
-41.07
-27.21
-11.81
2.83
14.92
23.69
29.41
32.81
34.48
34.56
32.76
28.81
22.89
15.88
9.10
4.05
1.91
3.07
7.04
12.73
18.67
23.71
27.18
29.03
29.73
29.71
29.16
27.86
25.56
22.30
18.66
15.65
13.94
13.45
13.17
11.50
7.26
0.32
-8.16
-16.28
-22.28
-25.29
-25.73
-25.04
-24.82
-26.03
-28.73
-32.13
-35.30
-37.69
-39.54
-41.64
-44.94
-50.02
-56.82
-64.73
-72.75
-79.91
-85.31
-88.25
-88.21
-84.84
-78.12
-68.26
-55.80
-41.47
-26.17
-11.06
2.76
14.18
22.21
25.71
23.10
12.90
-5.38
-29.92
-56.03
-77.05
-86.72
-81.72
-63.31
-36.65
-8.35
16.28
35.05
48.49
58.29
65.42
69.58
69.72
65.37
57.46
48.00
39.36
33.13
29.69
28.24
27.55
26.58
25.00
23.46
23.10
25.14
30.18
37.78
46.55
54.53
60.02
62.28
61.88
60.35
59.61
61.02
64.81
70.13
75.53
79.63
81.88
82.67
83.12
84.76
88.80
95.80
105.55
117.07
129.00
139.92
148.70
154.51
156.87
155.61
150.72
142.57
131.94
119.98
108.05
97.19
87.86
79.68
71.64
62.54
51.62
38.71
24.46
10.14
-2.78
-12.82
-19.00
-21.14
-19.98
-16.93
-13.70
-11.69
-11.58
-13.37
-16.40
-19.58
-21.53
-20.87
-16.71
-9.12
0.57
10.01
16.69
19.01
17.08
12.66
8.30
6.21
7.23
10.71
14.88
17.58
17.00
12.05
2.52
-11.01
-27.25
-44.60
-61.41
-76.20
-87.75
-95.34
-98.95
-99.44
-98.37
-97.40
-97.46
-97.89
-96.64
-91.10
-79.74
-63.16
-44.21
-26.92
-14.77
-9.30
-9.67
-13.24
-16.96
-18.56
-17.30
-13.91
-9.87
-6.49
-4.08
-1.66
2.59
10.26
22.03
37.24
54.02
69.88
82.38
89.14
88.05
77.87
59.21
35.54
12.67
-3.15
-8.24
-3.62
5.05
10.22
6.36
-7.52
-27.73
-48.46
-64.83
-74.81
-79.05
-79.10
-75.56
-67.61
-53.90
-34.08
-9.84
15.53
38.06
54.22
61.50
59.13
47.83
29.79
8.32
-12.93
-31.00
-44.49
-53.82
-60.66
-66.72
-72.77
-78.27
-81.80
-82.11
-78.91
-73.02
-65.84
-58.68
-52.11
-46.04
-39.96
-33.32
-25.72
-16.85
-6.57
5.49
19.61
35.80
53.57
71.56
87.43
98.00
100.45
93.80
79.94
63.28
48.95
40.19
36.41
33.40
25.21
7.27
-21.42
-57.94
-97.06
-133.55
-164.01
-187.19
-203.13
-212.21
-214.38
-209.40
-197.39
-179.08
-155.55
-127.88
-97.07
-63.67
-28.12
9.29
48.17
87.85
126.75
162.10
189.94
206.12
207.74
194.29
167.87
132.32
91.82
49.93
9.43
-27.37
-58.35
-82.01
-98.29
-108.89
-116.64
-124.04
-132.07
-139.77
-145.19
-146.76
-144.12
-138.07
-129.49
-118.67
-105.14
-88.33
-68.37
-46.29
-23.46
-0.78
21.50
43.34
63.86
80.53
89.09
84.88
64.98
30.28
-13.60
-57.65
-92.48
-111.80
-114.55
-104.90
-89.84
-75.84
-66.42
-61.43
-58.46
-54.92
-49.77
-43.79
-38.56
-35.36
-34.17
-34.00
-33.57
-31.93
-28.59
-23.57
-17.10
-9.85
-2.99
1.80
2.98
-0.02
-6.03
-12.04
-14.09
-8.81
5.15
26.33
50.78
72.96
87.38
89.86
78.94
56.85
29.64
6.29
-3.61
6.49
36.72
79.77
122.81
152.29
159.43
143.70
112.42
76.92
47.31
28.50
19.55
16.03
13.39
9.46
4.81
1.21
-0.18
0.20
0.72
-0.26
-3.40
-8.13
-12.95
-16.32
-17.18
-15.22
-10.73
-4.31
3.48
12.29
21.92
32.30
43.18
54.05
64.16
72.43
77.78
79.31
76.68
70.19
60.89
50.27
39.99
31.57
25.97
23.52
23.90
26.34
29.86
33.71
37.40
40.82
44.00
46.96
49.48
51.22
51.87
51.27
49.61
47.28
44.70
42.24
40.04
38.11
36.15
33.70
30.20
25.44
19.76
14.09
9.64
7.06
6.20
5.98
5.03
2.41
-1.92
-7.17
-12.17
-16.13
-18.93
-21.05
-23.24
-26.12
-30.01
-34.83
-40.47
-46.66
-52.95
-58.58
-62.56
-63.75
-61.27
-54.88
-45.11
-33.37
-21.54
-11.23
-3.37
2.22
6.40
10.23
14.24
18.23
21.40
22.91
22.45
20.35
17.57
15.09
13.60
13.17
13.59
14.59
16.10
18.15
20.65
23.20
24.95
25.09
23.24
19.79
15.82
12.69
11.39
12.03
13.73
14.95
14.31
11.28
6.37
1.06
-2.99
-4.66
-4.01
-2.16
-0.76
-1.08
-3.39
-6.97
-10.53
-13.07
-14.28
-14.58
-14.70
-15.17
-16.15
-17.62
-19.58
-22.20
-25.82
-30.56
-35.87
-40.45
-42.61
-41.00
-35.24
-26.13
-15.30
-4.55
4.86
12.49
18.35
22.78
25.88
27.58
27.72
26.31
23.68
20.39
17.22
14.90
14.07
15.07
17.83
21.64
25.30
27.77
28.49
27.71
26.30
25.28
25.17
25.77
26.22
25.57
23.26
19.35
14.47
9.47
4.94
1.03
-2.45
-5.82
-9.27
-12.65
-15.71
-18.24
-20.23
-22.00
-23.80
-25.64
-27.11
-27.68
-26.96
-25.28
-23.63
-23.38
-25.71
-30.97
-38.50
-46.74
-53.79
-58.00
-58.52
-55.30
-49.05
-40.73
-31.32
-21.66
-12.42
-4.17
2.50
7.14
9.67
10.37
9.92
9.10
8.40
7.90
7.28
5.99
3.77
0.80
-2.18
-4.31
-4.82
-3.41
-0.39
3.59
7.78
11.70
15.02
17.60
19.11
19.14
17.24
13.35
7.98
2.24
-2.51
-5.31
-6.10
-5.64
-5.08
-5.24
-6.26
-7.61
-8.72
-9.39
-10.11
-11.60
-14.42
-18.40
-22.64
-26.00
-27.62
-27.42
-26.02
-24.47
-23.81
-24.65
-27.19
-31.16
-36.00
-40.71
-44.16
-45.25
-43.24
-38.04
-30.14
-20.57
-10.51
-1.05
7.12
13.69
18.63
21.95
23.59
23.54
21.79
18.57
14.33
9.83
5.79
2.99
1.89
2.48
4.29
6.52
8.49
10.01
11.41
13.10
15.28
17.61
19.23
19.34
17.64
14.60
11.31
8.84
7.74
7.90
8.71
9.45
9.67
9.21
8.13
6.44
3.99
0.74
-3.17
-7.24
-10.68
-12.64
-12.76
-11.43
-9.61
-8.54
-9.01
-11.10
-14.33
-18.03
-21.87
-26.04
-31.01
-36.97
-43.56
-49.70
-54.00
-55.17
-52.44
-45.76
-35.81
-23.91
-11.68
-0.71
7.92
13.91
17.75
20.26
21.91
22.61
21.71
18.52
13.03
6.22
-0.11
-4.23
-5.05
-2.74
1.66
6.75
11.53
15.66
19.32
22.68
25.50
27.13
26.85
24.60
21.06
17.43
14.78
13.32
12.36
10.63
7.26
2.28
-3.27
-7.90
-10.53
-11.04
-10.32
-9.59
-9.86
-11.44
-13.95
-16.78
-19.35
-21.33
-22.58
-23.29
-23.79
-24.56
-26.04
-28.47
-31.81
-35.77
-40.04
-44.28
-48.10
-50.86
-51.47
-48.75
-41.88
-31.00
-17.47
-3.47
8.96
18.45
24.72
28.30
29.83
29.83
28.51
26.17
23.18
20.03
17.02
14.05
10.89
7.45
4.28
2.42
2.90
6.16
11.59
17.70
22.81
25.82
26.46
25.35
23.38
21.24
19.17
17.14
14.93
12.45
9.72
6.68
3.33
-0.39
-4.35
-8.08
-11.02
-12.74
-13.18
-12.77
-12.32
-12.59
-13.98
-16.39
-19.35
-22.32
-24.94
-27.25
-29.60
-32.53
-36.49
-41.94
-48.82
-56.47
-63.56
-68.28
-68.86
-64.25
-54.76
-41.92
-27.93
-14.84
-3.76
5.27
12.78
19.28
24.72
28.53
30.01
28.93
25.65
21.08
16.23
11.76
8.04
5.26
3.72
3.89
6.36
11.34
18.43
26.55
34.35
40.42
43.78
44.18
42.06
38.40
34.20
30.25
26.83
23.65
20.25
16.00
10.64
4.30
-2.45
-8.75
-13.55
-16.06
-16.23
-14.86
-13.51
-13.78
-16.57
-21.54
-27.28
-32.05
-34.83
-36.01
-37.07
-39.78
-45.18
-53.17
-62.63
-72.11
-80.37
-86.54
-89.99
-89.92
-85.61
-76.62
-63.16
-46.25
-27.50
-8.53
9.35
25.48
39.91
52.73
63.77
72.23
76.90
76.69
71.62
63.43
55.27
50.39
50.24
53.61
57.08
57.00
51.71
42.68
33.68
28.47
28.68
32.93
38.00
40.77
39.78
35.68
30.24
24.98
20.55
16.69
12.83
8.81
4.88
1.48
-0.89
-2.03
-2.14
-1.66
-1.35
-1.96
-3.98
-7.37
-11.56
-15.64
-18.95
-21.32
-23.08
-24.89
-27.29
-30.56
-34.59
-39.29
-44.64
-50.65
-57.09
-63.31
-68.21
-70.48
-69.01
-63.18
-53.05
-39.23
-22.78
-5.27
11.50
25.70
36.00
41.91
43.96
43.16
40.43
36.16
30.34
23.17
15.56
9.22
5.93
6.88
11.94
19.88
29.08
38.17
46.41
53.42
58.67
61.30
60.64
56.65
50.21
43.11
37.08
33.11
31.04
29.81
28.15
25.26
21.15
16.65
12.80
10.24
9.01
8.34
7.05
4.15
-0.73
-6.99
-13.28
-18.13
-20.70
-21.31
-21.48
-23.32
-28.68
-38.24
-51.12
-65.01
-76.77
-83.17
-81.65
-71.04
-52.25
-28.18
-3.12
18.58
33.97
42.44
45.50
45.59
44.59
42.96
39.86
34.24
25.96
16.34
7.61
1.92
0.25
2.22
6.66
12.40
18.73
25.41
32.24
38.74
44.00
47.12
47.53
45.36
41.28
36.27
31.24
26.79
23.09
19.98
17.03
13.72
9.65
4.71
-0.65
-5.64
-9.39
-11.38
-11.82
-11.54
-11.57
-12.56
-14.59
-17.20
-19.90
-22.62
-25.71
-29.77
-35.22
-42.09
-49.97
-58.21
-65.88
-71.75
-74.33
-71.95
-63.56
-49.20
-30.51
-10.20
8.82
24.52
36.22
44.34
49.66
52.48
52.45
49.05
42.30
33.31
24.19
17.27
14.20
15.23
19.34
24.74
29.83
33.86
36.99
39.83
42.85
45.75
47.70
47.75
45.44
41.24
36.26
31.77
28.49
26.35
24.57
22.21
18.72
14.30
9.81
6.22
4.30
4.15
5.09
6.02
5.95
4.38
1.45
-2.17
-5.80
-8.99
-11.71
-14.19
-16.76
-19.57
-22.80
-26.77
-31.85
-38.56
-46.89
-56.05
-64.24
-68.95
-67.73
-59.01
-42.86
-21.13
3.01
25.95
44.73
57.91
65.67
69.01
69.11
66.49
61.10
52.71
41.82
30.06
19.94
13.85
12.99
16.72
23.03
29.67
35.20
39.54
43.58
47.94
52.47
55.94
56.88
54.38
48.76
41.53
34.51
28.88
24.67
20.84
16.29
10.66
4.56
-0.70
-3.94
-5.06
-4.86
-4.82
-6.06
-8.87
-12.53
-15.90
-18.18
-19.48
-20.57
-22.36
-25.23
-28.82
-32.39
-35.46
-38.08
-40.93
-44.79
-49.95
-55.79
-60.91
-63.34
-61.20
-53.39
-40.02
-22.59
-3.70
13.74
27.47
36.37
40.86
42.27
41.99
40.87
38.89
35.65
30.93
25.24
19.71
15.85
14.74
16.69
21.25
27.31
33.48
38.58
41.78
42.87
42.06
39.83
36.71
33.13
29.34
25.54
21.88
18.48
15.32
12.17
8.68
4.66
0.21
-4.34
-8.39
-11.44
-13.20
-13.69
-13.17
-12.13
-11.15
-10.79
-11.55
-13.46
-16.20
-19.20
-21.91
-24.18
-26.24
-28.65
-31.87
-36.11
-41.20
-46.74
-52.30
-57.26
-60.85
-62.02
-59.69
-53.29
-43.00
-29.88
-15.65
-1.98
9.92
19.45
26.44
30.90
32.88
32.60
30.56
27.48
24.15
21.24
19.11
18.01
18.12
19.63
22.54
26.40
30.35
33.24
34.21
33.00
30.06
26.27
22.51
19.29
16.52
13.82
10.76
7.16
3.10
-1.16
-5.44
-9.63
-13.66
-17.30
-20.12
-21.54
-21.14
-18.96
-15.65
-12.29
-10.03
-9.55
-10.88
-13.32
-15.85
-17.63
-18.32
-18.14
-17.76
-18.04
-19.61
-22.63
-26.70
-31.06
-34.92
-37.93
-40.19
-41.93
-43.13
-43.14
-40.89
-35.52
-27.08
-16.91
-7.14
0.24
4.31
5.49
5.14
4.66
4.63
4.65
3.76
1.16
-3.17
-8.23
-12.44
-14.37
-13.28
-9.49
-4.17
1.26
5.66
8.61
10.30
11.32
12.20
13.16
14.05
14.47
14.04
12.51
9.92
6.57
3.00
-0.20
-2.50
-3.62
-3.60
-2.77
-1.61
-0.49
0.35
0.73
0.49
-0.44
-2.00
-3.91
-5.84
-7.48
-8.68
-9.53
-10.27
-11.30
-13.02
-15.72
-19.45
-23.93
-28.46
-32.08
-33.84
-33.05
-29.51
-23.53
-15.85
-7.29
1.20
8.85
14.96
19.00
20.78
20.54
18.76
16.12
13.17
10.16
7.07
3.81
0.50
-2.33
-3.96
-3.69
-1.33
2.73
7.54
12.02
15.37
17.36
18.25
18.41
18.04
16.91
14.72
11.44
7.52
3.81
1.16
0.00
0.05
0.54
0.57
-0.45
-2.41
-4.67
-6.41
-7.13
-7.03
-7.00
-8.08
-10.86
-15.03
-19.35
-22.34
-23.00
-21.47
-18.76
-16.46
-15.89
-17.63
-21.48
-26.65
-32.11
-36.73
-39.54
-39.87
-37.36
-32.19
-25.00
-16.66
-8.07
0.11
7.38
13.36
17.73
20.20
20.73
19.53
17.06
13.86
10.42
7.13
4.35
2.38
1.56
2.02
3.74
6.38
9.43
12.38
14.84
16.71
18.11
19.19
19.90
19.95
18.96
16.66
13.26
9.34
5.79
3.30
2.11
1.98
2.30
2.47
2.21
1.52
0.64
-0.14
-0.61
-0.81
-0.91
-1.33
-2.69
-5.48
-9.71
-14.74
-19.45
-22.70
-23.95
-23.52
-22.46
-21.98
-22.86
-25.10
-28.11
-31.17
-33.98
-36.71
-39.59
-42.42
-44.26
-43.61
-39.14
-30.50
-18.67
-5.76
5.85
14.38
19.31
21.38
21.98
22.26
22.58
22.61
21.74
19.65
16.60
13.27
10.30
8.02
6.27
4.68
3.12
1.95
1.99
3.84
7.38
11.77
15.67
17.97
18.38
17.29
15.38
13.13
10.66
7.86
4.82
2.10
0.44
0.44
2.06
4.56
6.88
8.15
7.98
6.55
4.21
1.33
-1.85
-5.02
-7.75
-9.57
-10.20
-9.87
-9.26
-9.25
-10.42
-12.78
-15.75
-18.54
-20.66
-22.17
-23.57
-25.42
-27.97
-31.08
-34.41
-37.73
-41.09
-44.40
-47.25
-48.66
-47.30
-42.16
-33.06
-20.99
-7.79
4.41
14.01
20.29
23.49
24.40
23.85
22.31
19.94
16.83
13.28
9.89
7.27
5.70
5.09
5.07
5.41
6.26
8.02
10.97
14.99
19.34
23.10
25.52
26.30
25.61
23.89
21.54
18.85
16.03
13.44
11.31
9.82
8.69
7.51
5.84
3.69
1.47
-0.15
-0.69
-0.17
0.85
1.52
1.19
-0.43
-3.18
-6.55
-10.03
-13.16
-15.66
-17.37
-18.28
-18.40
-17.92
-17.16
-16.55
-16.65
-18.05
-21.21
-26.20
-32.53
-39.14
-44.57
-47.36
-46.47
-41.64
-33.31
-22.57
-10.66
1.16
11.74
20.32
26.35
29.69
30.42
28.99
25.86
21.51
16.26
10.48
4.77
-0.06
-2.88
-2.91
0.01
5.08
10.80
15.71
19.04
21.01
22.46
24.24
26.50
28.60
29.44
28.27
25.00
20.34
15.22
10.39
6.13
2.38
-1.04
-4.06
-6.36
-7.71
-8.07
-7.68
-7.03
-6.54
-6.60
-7.39
-8.89
-10.96
-13.33
-15.63
-17.54
-18.91
-19.97
-21.32
-23.67
-27.47
-32.71
-38.61
-43.85
-46.85
-46.22
-41.09
-31.45
-18.27
-3.51
10.45
21.51
28.48
31.42
31.45
30.02
28.16
26.14
23.65
20.30
16.24
12.11
8.82
6.98
6.74
7.98
10.56
14.54
20.03
26.70
33.52
38.94
41.51
40.44
36.16
30.02
23.67
18.34
14.39
11.42
8.61
5.30
1.24
-3.18
-7.36
-10.64
-12.68
-13.62
-13.93
-14.27
-15.23
-17.10
-19.82
-23.13
-26.57
-29.75
-32.35
-34.42
-36.46
-39.31
-43.86
-50.37
-57.94
-64.47
-67.26
-64.00
-53.53
-36.47
-15.03
7.56
27.77
42.79
51.07
52.59
48.80
42.07
34.71
28.31
23.35
19.43
15.89
12.44
9.47
7.82
8.17
10.63
14.68
19.32
23.69
27.23
29.74
31.42
32.44
32.77
32.14
30.25
27.02
22.67
17.82
13.21
9.41
6.65
4.66
3.04
1.29
-0.89
-3.51
-6.34
-9.01
-11.28
-13.15
-14.88
-16.69
-18.81
-21.21
-23.72
-26.29
-29.00
-32.26
-36.49
-42.01
-48.46
-54.95
-60.02
-62.01
-59.59
-52.22
-40.58
-26.35
-11.79
1.20
11.63
19.64
25.92
30.88
34.36
35.51
33.68
29.04
22.78
16.71
12.37
10.34
10.24
11.35
13.17
15.83
19.68
24.73
30.44
35.70
39.47
41.08
40.59
38.51
35.60
32.49
29.56
26.98
24.68
22.36
19.59
16.11
11.97
7.76
4.36
2.53
2.40
3.34
4.23
4.06
2.35
-0.70
-4.32
-7.76
-10.53
-12.65
-14.51
-16.56
-19.13
-22.40
-26.46
-31.42
-37.30
-43.74
-49.74
-53.66
-53.67
-48.50
-38.05
-23.58
-7.35
8.14
21.01
30.48
36.66
40.17
41.52
40.85
38.10
33.33
27.04
20.40
14.89
11.89
12.12
15.30
20.25
25.43
29.56
32.17
33.52
34.28
34.90
35.32
35.09
33.73
31.14
27.81
24.48
21.82
20.07
19.04
18.26
17.19
15.38
12.68
9.15
5.09
1.09
-2.28
-4.50
-5.58
-5.94
-6.29
-7.20
-8.91
-11.26
-13.92
-16.75
-19.89
-23.64
-28.03
-32.80
-37.46
-41.75
-45.86
-50.27
-55.20
-60.03
-63.17
-62.51
-56.59
-45.39
-30.51
-14.55
-0.03
11.38
19.32
24.24
27.00
28.30
28.56
27.98
26.56
24.36
21.45
18.20
15.15
12.99
12.37
13.62
16.66
20.94
25.83
30.63
34.83
38.00
39.79
39.92
38.33
35.31
31.39
27.25
23.39
20.10
17.44
15.42
13.92
12.70
11.62
10.44
9.18
8.05
7.30
7.16
7.55
8.03
7.91
6.45
3.25
-1.54
-7.26
-12.80
-17.16
-19.81
-20.82
-20.93
-21.05
-21.89
-23.70
-26.28
-29.49
-33.32
-37.83
-42.77
-47.10
-49.03
-46.65
-38.89
-26.14
-10.40
5.48
18.90
28.41
34.05
36.84
38.12
38.68
38.58
37.44
34.66
30.09
24.18
17.91
12.42
8.72
7.31
8.05
10.34
13.30
16.17
18.29
19.40
19.30
17.93
15.37
11.86
7.87
3.99
0.68
-2.03
-4.39
-6.86
-9.58
-12.31
-14.63
-16.06
-16.48
-15.92
-14.61
-12.74
-10.46
-8.12
-6.23
-5.38
-5.81
-7.30
-9.12
-10.50
-10.99
-10.81
-10.66
-11.28
-13.02
-15.63
-18.59
-21.32
-23.54
-25.32
-26.91
-28.54
-30.36
-32.30
-33.99
-34.97
-34.61
-32.32
-27.74
-20.76
-11.66
-1.00
10.40
21.57
31.49
39.25
44.23
46.11
45.09
41.55
36.03
29.21
21.86
15.03
9.87
7.33
7.72
10.53
14.61
18.75
22.22
24.99
27.50
30.13
32.76
34.69
35.09
33.42
29.78
24.84
19.52
14.48
10.05
6.17
2.71
-0.31
-2.67
-4.19
-4.86
-5.10
-5.50
-6.67
-8.78
-11.55
-14.40
-16.85
-18.82
-20.55
-22.38
-24.32
-26.12
-27.47
-28.37
-29.40
-31.45
-35.30
-41.13
-48.23
-55.31
-60.85
-63.52
-62.54
-57.69
-49.33
-38.30
-25.75
-13.15
-1.79
7.40
14.04
18.21
20.26
20.47
19.08
16.34
12.65
8.80
5.65
3.97
4.06
5.56
7.76
9.94
11.75
13.48
15.83
19.22
23.50
27.69
30.52
31.02
28.95
24.98
20.12
15.32
11.10
7.60
4.90
3.18
2.63
3.18
4.31
5.09
4.71
2.80
-0.24
-3.65
-6.83
-9.48
-11.80
-14.00
-16.05
-17.70
-18.65
-18.95
-19.05
-19.63
-21.19
-23.91
-27.63
-31.97
-36.66
-41.36
-45.61
-48.50
-48.92
-45.82
-38.69
-28.07
-15.41
-2.68
8.28
16.45
21.86
25.29
27.72
29.71
31.14
31.39
29.77
26.13
21.07
15.79
11.72
9.88
10.58
13.25
16.87
20.31
22.89
24.53
25.58
26.53
27.41
27.80
26.87
24.08
19.43
13.59
7.52
2.04
-2.51
-6.36
-9.89
-13.34
-16.61
-19.27
-20.83
-20.99
-19.75
-17.49
-14.88
-12.69
-11.56
-11.77
-13.20
-15.41
-17.87
-20.11
-21.74
-22.54
-22.31
-20.98
-18.95
-17.08
-16.56
-18.42
-22.83
-28.58
-33.34
-34.47
-30.28
-20.74
-7.61
6.31
18.46
27.37
32.95
36.01
37.41
37.54
36.15
32.94
27.94
21.99
16.27
11.83
9.05
7.53
6.49
5.28
3.90
2.89
2.96
4.49
7.15
10.16
12.64
14.01
14.09
13.08
11.30
9.02
6.39
3.56
0.74
-1.90
-4.26
-6.45
-8.57
-10.75
-12.96
-15.01
-16.64
-17.53
-17.57
-16.77
-15.45
-14.12
-13.55
-14.39
-16.96
-21.12
-26.15
-30.94
-34.41
-35.91
-35.49
-33.94
-32.49
-32.39
-34.49
-38.86
-44.63
-50.09
-53.15
-51.97
-45.65
-34.73
-20.97
-6.77
5.72
15.18
21.36
24.74
26.02
25.72
24.07
21.28
17.60
13.60
9.82
6.69
4.41
3.03
2.61
3.39
5.68
9.55
14.68
20.26
25.26
28.68
29.94
29.04
26.51
23.16
19.80
16.98
15.00
13.85
13.31
13.13
13.00
12.75
12.29
11.66
11.06
10.66
10.54
10.76
11.26
12.00
13.06
14.43
15.98
17.32
17.91
17.31
15.50
12.90
10.12
7.57
5.14
2.28
-1.72
-7.16
-13.76
-20.68
-26.83
-31.26
-33.25
-32.45
-28.78
-22.40
-13.81
-3.83
6.55
16.30
24.57
30.74
34.27
34.83
32.39
27.38
20.81
14.00
8.16
4.04
1.72
0.84
0.96
1.87
3.56
6.12
9.37
12.85
15.86
17.93
18.97
19.23
18.98
18.18
16.50
13.49
9.05
3.58
-2.14
-7.36
-11.64
-14.97
-17.55
-19.44
-20.48
-20.35
-18.90
-16.36
-13.35
-10.72
-9.25
-9.40
-11.16
-14.12
-17.46
-20.22
-21.62
-21.43
-20.12
-18.72
-18.50
-20.36
-24.39
-29.75
-34.88
-38.03
-37.70
-33.19
-24.55
-12.66
1.07
15.04
27.83
38.34
45.97
50.58
52.35
51.65
48.93
44.57
39.05
32.91
26.90
21.90
18.75
17.84
19.02
21.62
24.82
28.02
31.04
34.03
37.00
39.55
40.80
39.75
35.96
29.77
22.26
14.59
7.63
1.61
-3.66
-8.54
-13.34
-18.10
-22.77
-27.21
-31.27
-34.79
-37.70
-40.08
-42.09
-44.02
-46.00
-48.08
-50.21
-52.34
-54.54
-56.95
-59.72
-62.87
-66.29
-70.09
-74.46
-79.45
-84.63
-88.82
-90.24
-87.10
-78.47
-64.86
-48.04
-30.42
-14.05
-0.21
10.71
18.80
24.17
26.74
26.37
23.35
18.49
13.09
8.53
5.81
5.19
6.25
8.24
10.54
12.93
15.60
18.85
22.67
26.68
30.08
32.05
32.21
30.78
28.28
25.29
22.10
18.74
15.21
11.74
8.83
7.07
6.66
7.25
8.06
8.24
7.26
5.03
1.86
-1.69
-5.22
-8.49
-11.44
-14.08
-16.55
-18.84
-20.91
-22.86
-24.81
-27.03
-29.82
-33.34
-37.43
-41.69
-45.62
-48.70
-50.57
-50.86
-49.15
-44.95
-37.93
-28.21
-16.48
-4.00
7.77
17.69
25.21
30.25
33.05
33.81
32.51
29.14
23.97
17.77
11.78
7.45
5.74
7.04
10.88
16.19
21.78
26.67
30.37
32.69
33.60
33.10
31.29
28.54
25.48
22.82
20.99
19.87
18.81
16.98
13.99
10.20
6.51
3.94
3.00
3.36
4.12
4.35
3.65
2.24
0.70
-0.55
-1.52
-2.58
-4.25
-6.73
-9.77
-12.87
-15.45
-17.18
-18.07
-18.42
-18.77
-19.68
-21.70
-25.16
-30.04
-35.87
-41.79
-46.73
-49.62
-49.61
-46.23
-39.44
-29.65
-17.70
-4.80
7.80
18.96
27.93
34.25
37.72
38.27
35.97
31.21
24.75
17.74
11.46
7.06
5.23
6.10
9.11
13.42
18.22
22.88
27.18
31.15
34.82
37.97
40.13
40.62
39.06
35.54
30.82
26.08
22.37
20.29
19.75
20.20
20.92
21.25
20.75
19.09
16.22
12.26
7.68
3.19
-0.52
-3.10
-4.75
-6.00
-7.52
-9.56
-12.02
-14.48
-16.60
-18.31
-19.86
-21.61
-23.84
-26.67
-30.13
-34.23
-39.03
-44.46
-49.97
-54.46
-56.56
-54.96
-49.12
-39.32
-26.80
-13.18
-0.16
10.97
19.52
25.27
28.43
29.33
28.37
25.90
22.24
17.71
12.79
8.10
4.47
2.77
3.49
6.47
10.84
15.37
19.03
21.39
22.74
23.84
25.29
27.08
28.59
28.95
27.60
24.73
21.19
18.00
15.82
14.69
13.97
12.98
11.18
8.61
5.77
3.26
1.49
0.46
-0.16
-0.80
-1.73
-3.02
-4.55
-6.16
-7.76
-9.49
-11.58
-14.28
-17.59
-21.22
-24.73
-27.84
-30.68
-33.77
-37.71
-42.66
-48.01
-52.39
-54.04
-51.59
-44.56
-33.70
-20.69
-7.48
4.28
13.61
20.33
24.68
27.06
27.82
27.16
25.28
22.54
19.43
16.63
14.67
13.88
14.30
15.77
17.93
20.42
22.86
25.02
26.84
28.38
29.69
30.75
31.34
31.25
30.48
29.35
28.32
27.79
27.66
27.37
26.27
24.10
21.14
18.19
15.98
14.77
14.23
13.71
12.73
11.32
9.88
8.89
8.61
8.81
8.94
8.36
6.60
3.48
-0.95
-6.39
-12.34
-18.14
-23.13
-26.82
-29.12
-30.49
-31.82
-34.12
-38.15
-43.85
-50.28
-55.81
-58.63
-57.34
-51.33
-41.00
-27.63
-13.03
0.77
12.13
19.90
23.81
24.35
22.43
19.12
15.18
11.02
6.82
2.82
-0.46
-2.42
-2.57
-0.87
2.19
5.81
9.21
11.86
13.76
15.27
16.86
18.71
20.45
21.28
20.38
17.54
13.31
8.84
5.33
3.32
2.68
2.66
2.59
2.28
2.00
2.14
2.68
3.09
2.49
0.30
-3.46
-7.97
-12.05
-14.78
-15.71
-15.18
-14.10
-13.57
-14.39
-16.78
-20.19
-23.61
-26.08
-27.08
-26.77
-25.90
-25.52
-26.49
-29.18
-33.45
-38.58
-43.46
-46.83
-47.55
-44.73
-38.09
-27.96
-15.42
-2.02
10.49
20.60
27.31
30.39
30.39
28.38
25.57
22.89
20.61
18.50
16.07
13.10
9.93
7.35
6.27
7.22
9.99
13.83
17.80
21.22
23.90
26.05
27.82
29.08
29.42
28.46
26.06
22.50
18.35
14.23
10.60
7.68
5.49
3.91
2.79
1.99
1.35
0.70
-0.13
-1.18
-2.46
-3.86
-5.27
-6.60
-7.72
-8.44
-8.65
-8.41
-8.18
-8.71
-10.86
-15.05
-21.02
-27.66
-33.41
-36.68
-36.50
-32.71
-25.90
-17.10
-7.31
2.65
12.11
20.49
27.16
31.54
33.24
32.17
28.70
23.60
17.89
12.66
8.70
6.37
5.57
5.93
7.01
8.52
10.37
12.50
14.72
16.69
17.96
18.20
17.33
15.63
13.57
11.69
10.17
8.88
7.37
5.28
2.52
-0.59
-3.55
-5.97
-7.91
-9.95
-12.75
-16.70
-21.46
-26.11
-29.55
-31.14
-31.06
-30.29
-30.18
-31.78
-35.51
-41.04
-47.49
-53.47
-57.44
-57.92
-53.89
-45.13
-32.54
-17.97
-3.76
8.16
16.79
22.27
25.45
27.32
28.36
28.51
27.45
25.02
21.49
17.53
13.88
11.18
9.85
10.09
11.88
15.01
19.01
23.16
26.63
28.75
29.29
28.50
26.79
24.56
21.85
18.40
13.96
8.55
2.67
-2.76
-6.84
-9.05
-9.51
-9.04
-8.76
-9.63
-11.94
-15.20
-18.38
-20.63
-21.58
-21.61
-21.64
-22.68
-25.42
-30.03
-36.18
-43.18
-50.08
-55.78
-59.07
-58.83
-54.47
-46.08
-34.60
-21.50
-8.29
3.80
14.04
21.94
27.23
29.80
29.85
27.90
24.72
21.05
17.35
13.80
10.54
7.83
6.32
6.61
9.06
13.42
18.76
23.88
27.72
29.72
29.94
28.89
27.12
25.12
23.10
21.16
19.19
17.13
14.95
12.66
10.40
8.25
6.29
4.57
3.02
1.61
0.43
-0.52
-1.30
-2.19
-3.76
-6.46
-10.36
-14.94
-19.18
-22.08
-23.19
-23.02
-22.84
-24.16
-27.90
-34.00
-41.18
-47.31
-50.16
-48.04
-40.51
-28.45
-13.94
0.66
13.32
23.02
29.68
33.72
35.37
34.59
31.22
25.56
18.68
12.18
7.55
5.61
6.21
8.56
11.76
15.20
18.58
21.79
24.72
27.16
28.93
29.89
29.99
29.28
27.80
25.63
22.89
19.79
16.50
13.20
10.08
7.38
5.41
4.46
4.53
5.21
5.81
5.59
4.17
1.67
-1.33
-4.15
-6.34
-7.86
-8.99
-10.17
-11.77
-14.09
-17.41
-22.07
-28.20
-35.63
-43.50
-50.37
-54.40
-54.09
-48.82
-39.25
-27.04
-14.15
-2.27
7.80
15.85
21.99
26.15
28.03
27.39
24.35
19.61
14.27
9.39
5.75
3.72
3.24
4.08
5.99
8.66
11.77
15.07
18.38
21.51
24.22
26.18
27.06
26.69
25.11
22.65
19.69
16.58
13.51
10.49
7.61
4.98
2.83
1.27
0.27
-0.30
-0.67
-0.98
-1.38
-1.99
-2.97
-4.44
-6.44
-8.79
-11.22
-13.45
-15.34
-16.94
-18.42
-20.03
-21.91
-24.23
-27.09
-30.66
-35.03
-40.10
-45.37
-49.86
-52.38
-51.76
-47.30
-39.03
-27.69
-14.55
-1.00
11.69
22.53
30.86
36.24
38.52
37.95
35.06
30.59
25.36
20.00
15.08
11.01
8.24
7.21
8.20
11.20
15.66
20.77
25.59
29.43
31.92
33.02
32.84
31.38
28.72
24.99
20.63
16.28
12.57
9.85
8.04
6.66
5.17
3.30
1.20
-0.64
-1.82
-2.13
-1.80
-1.42
-1.59
-2.80
-5.10
-8.13
-11.30
-14.09
-16.30
-18.17
-20.26
-23.01
-26.42
-29.99
-32.99
-35.02
-36.28
-37.77
-40.48
-44.96
-50.70
-56.33
-60.18
-60.84
-57.63
-50.50
-40.06
-27.24
-13.29
0.35
12.29
21.48
27.47
30.50
31.22
30.30
28.17
24.96
20.77
16.00
11.47
8.26
7.39
9.28
13.67
19.56
25.72
31.01
34.87
37.27
38.66
39.53
40.22
40.73
40.83
40.21
38.54
35.83
32.42
29.00
26.34
25.07
25.33
26.66
28.10
28.61
27.50
24.74
20.99
17.19
14.13
12.06
10.54
8.82
6.25
2.73
-1.31
-5.21
-8.44
-10.90
-12.94
-15.01
-17.46
-20.39
-23.86
-28.06
-33.36
-39.94
-47.53
-55.08
-60.87
-63.10
-60.63
-53.59
-43.34
-31.95
-21.48
-13.33
-8.01
-5.15
-4.08
-4.03
-4.55
-5.51
-6.95
-8.89
-11.21
-13.55
-15.41
-16.34
-16.01
-14.32
-11.47
-7.70
-3.14
2.20
8.32
14.99
21.49
26.74
29.74
29.98
27.81
24.24
20.45
17.26
14.79
12.59
10.09
7.04
3.56
0.16
-2.73
-4.83
-6.06
-6.46
-6.22
-5.61
-5.11
-5.31
-6.58
-8.95
-11.99
-14.98
-17.39
-19.17
-20.71
-22.64
-25.50
-29.41
-34.28
-39.90
-45.94
-51.89
-56.73
-58.92
-56.86
-49.62
-37.57
-22.59
-7.40
5.43
14.47
19.86
22.79
24.63
26.04
26.73
25.83
22.75
17.75
12.04
7.39
5.28
6.33
10.10
15.45
21.04
25.93
29.79
32.67
34.85
36.41
37.28
37.29
36.40
34.71
32.41
29.76
26.86
23.71
20.37
16.96
13.65
10.60
7.81
5.10
2.41
-0.22
-2.51
-4.24
-5.40
-6.29
-7.42
-9.18
-11.66
-14.51
-17.26
-19.53
-21.28
-22.80
-24.45
-26.53
-29.15
-32.39
-36.46
-41.65
-48.03
-54.97
-61.17
-64.67
-63.68
-57.23
-45.64
-30.43
-13.90
1.65
14.36
23.21
28.03
29.34
28.11
25.43
22.18
18.83
15.45
11.98
8.62
6.05
5.07
6.14
8.96
12.56
15.76
17.82
18.91
19.82
21.39
23.87
26.69
28.79
29.18
27.53
24.31
20.47
16.90
13.95
11.50
9.17
6.67
4.07
1.80
0.28
-0.30
-0.19
0.05
-0.10
-0.83
-2.10
-3.67
-5.42
-7.46
-9.86
-12.57
-15.21
-17.26
-18.42
-18.78
-18.80
-19.11
-20.23
-22.45
-25.87
-30.46
-35.97
-41.86
-46.96
-49.55
-47.91
-41.03
-29.16
-14.11
1.49
15.11
25.06
31.00
33.50
33.55
31.94
29.17
25.51
21.27
16.94
13.14
10.41
9.05
9.13
10.54
13.14
16.63
20.68
24.85
28.66
31.75
33.87
34.81
34.48
32.91
30.34
27.22
24.12
21.36
19.01
16.75
14.25
11.33
8.10
4.90
2.06
-0.15
-1.71
-2.81
-3.63
-4.43
-5.39
-6.66
-8.45
-10.87
-13.86
-17.20
-20.50
-23.50
-26.11
-28.63
-31.55
-35.25
-39.68
-44.05
-47.00
-46.94
-42.78
-34.45
-22.98
-10.13
2.23
12.71
20.70
26.16
29.35
30.41
29.31
26.03
20.91
14.78
8.94
4.66
2.71
3.14
5.19
7.82
10.21
12.19
14.17
16.76
20.23
24.24
27.86
30.05
30.23
28.49
25.50
22.17
19.16
16.58
14.02
10.89
6.78
1.76
-3.55
-8.29
-11.69
-13.43
-13.79
-13.42
-13.00
-12.86
-12.99
-13.19
-13.65
-14.77
-17.16
-21.04
-25.84
-30.61
-34.51
-37.59
-40.93
-45.88
-53.08
-61.49
-68.50
-70.85
-66.35
-54.83
-38.41
-20.51
-4.32
8.24
17.01
22.86
26.98
30.06
32.00
32.27
30.38
26.38
20.98
15.33
10.61
7.81
7.26
8.82
11.83
15.42
18.86
21.64
23.69
25.35
27.00
28.83
30.59
31.57
30.90
28.12
23.46
17.95
12.89
9.27
7.22
6.01
4.61
2.29
-0.85
-3.95
-5.98
-6.38
-5.39
-3.98
-3.22
-3.74
-5.56
-8.17
-10.99
-13.66
-16.20
-18.85
-21.85
-25.26
-29.01
-32.98
-37.27
-42.11
-47.73
-53.96
-59.91
-63.98
-64.30
-59.42
-49.26
-35.28
-20.03
-6.20
4.56
12.15
17.65
22.41
27.06
31.06
33.11
32.18
28.28
22.59
16.94
12.86
10.89
10.70
11.55
13.01
15.33
19.02
24.31
30.68
36.78
41.11
42.61
41.25
37.93
33.93
30.24
27.18
24.47
21.67
18.52
15.20
12.17
9.82
8.34
7.47
6.78
5.85
4.52
3.00
1.75
1.17
1.36
1.97
2.34
1.71
-0.45
-4.21
-9.08
-14.19
-18.72
-22.13
-24.45
-26.23
-28.29
-31.34
-35.78
-41.57
-48.18
-54.67
-59.82
-62.19
-60.52
-54.08
-42.96
-28.25
-11.88
3.86
16.97
26.19
31.25
32.71
31.58
28.87
25.35
21.43
17.40
13.55
10.34
8.23
7.68
8.91
11.78
15.85
20.46
24.91
28.61
31.22
32.60
32.82
32.08
30.65
28.72
26.45
23.87
21.00
17.87
14.69
11.78
9.52
8.18
7.74
7.86
7.95
7.45
6.16
4.38
2.83
2.10
2.31
2.90
2.86
1.25
-2.21
-7.09
-12.35
-16.87
-19.96
-21.56
-22.31
-23.19
-25.08
-28.52
-33.50
-39.64
-46.18
-52.17
-56.43
-57.80
-55.35
-48.74
-38.42
-25.64
-12.11
0.62
11.51
20.31
27.18
32.24
35.36
36.15
34.31
30.11
24.46
18.71
14.19
11.86
11.95
14.08
17.48
21.32
24.98
28.24
31.13
33.82
36.39
38.60
40.13
40.61
40.00
38.46
36.24
33.40
29.84
25.52
20.58
15.63
11.44
8.62
7.24
6.78
6.45
5.65
4.20
2.38
0.56
-1.09
-2.80
-4.97
-7.86
-11.36
-15.09
-18.63
-21.85
-24.94
-28.34
-32.44
-37.28
-42.61
-48.01
-53.17
-58.04
-62.58
-66.63
-69.53
-70.26
-67.69
-61.18
-50.91
-37.89
-23.70
-9.98
1.90
11.06
17.19
20.42
21.25
20.25
18.03
15.14
11.99
8.99
6.70
5.74
6.61
9.44
13.77
18.79
23.60
27.71
31.09
34.03
36.66
38.62
39.21
37.74
34.09
28.86
23.17
18.13
14.41
12.05
10.51
9.14
7.47
5.46
3.47
1.91
0.99
0.48
-0.11
-1.23
-3.02
-5.25
-7.47
-9.45
-11.43
-13.88
-17.22
-21.29
-25.33
-28.38
-30.01
-30.68
-31.56
-33.73
-37.42
-41.69
-44.75
-44.73
-40.59
-32.50
-21.58
-9.34
2.83
14.00
23.39
30.33
34.19
34.58
31.67
26.30
19.77
13.46
8.39
5.00
3.28
3.03
4.12
6.49
10.06
14.52
19.33
23.80
27.39
29.77
30.80
30.46
28.71
25.61
21.37
16.48
11.65
7.61
4.66
2.65
0.98
-0.93
-3.41
-6.28
-8.99
-10.98
-12.11
-12.61
-13.12
-14.10
-15.64
-17.34
-18.58
-18.92
-18.39
-17.57
-17.17
-17.86
-19.90
-23.29
-27.80
-33.11
-38.82
-44.17
-48.05
-49.11
-46.21
-38.92
-27.87
-14.60
-1.16
10.54
19.36
25.11
28.22
29.40
29.19
27.75
25.03
21.12
16.36
11.48
7.40
4.82
4.10
5.19
7.72
11.12
14.84
18.36
21.36
23.60
25.06
25.83
26.02
25.66
24.76
23.29
21.22
18.72
15.94
13.12
10.47
8.12
6.13
4.44
2.85
1.09
-0.97
-3.21
-5.28
-6.71
-7.32
-7.46
-7.81
-9.07
-11.54
-14.90
-18.46
-21.57
-23.87
-25.50
-26.78
-28.03
-29.48
-31.34
-34.09
-38.21
-43.74
-49.80
-54.51
-55.51
-51.14
-41.20
-27.30
-12.11
1.73
12.53
19.87
24.28
26.54
27.19
26.38
24.06
20.46
16.14
11.99
8.89
7.44
7.76
9.42
11.73
13.91
15.58
16.96
18.61
21.08
24.39
27.75
29.91
29.86
27.43
23.35
18.93
15.33
13.06
11.79
10.85
9.63
7.93
5.97
4.20
2.92
2.17
1.68
1.05
-0.01
-1.50
-3.10
-4.41
-5.11
-5.30
-5.58
-6.63
-8.83
-11.92
-15.11
-17.63
-19.28
-20.61
-22.54
-25.85
-30.68
-36.48
-42.34
-47.47
-51.28
-53.22
-52.69
-49.02
-41.76
-31.16
-18.33
-5.06
6.77
15.83
21.60
24.39
24.83
23.53
20.86
17.04
12.36
7.42
3.07
0.20
-0.59
0.68
3.37
6.49
9.24
11.28
12.93
14.87
17.53
20.79
23.88
25.73
25.54
23.20
19.36
15.12
11.50
9.07
7.85
7.47
7.42
7.30
6.80
5.78
4.30
2.70
1.41
0.86
1.20
2.20
3.32
3.89
3.55
2.26
0.29
-2.03
-4.42
-6.77
-9.15
-11.66
-14.36
-17.29
-20.49
-24.05
-27.99
-32.21
-36.26
-39.33
-40.35
-38.32
-32.71
-23.61
-12.00
0.55
12.26
21.69
28.05
31.20
31.53
29.69
26.63
23.19
20.01
17.40
15.39
13.75
12.30
11.17
10.85
12.29
15.96
21.60
28.13
34.16
38.48
40.21
39.29
36.42
33.35
31.50
31.64
33.66
36.87
40.21
42.00
40.99
37.07
32.58
29.88
30.68
35.10
41.73
47.78
48.65
39.94
19.43
-10.20
-44.17
-76.39
-101.44
-115.75
-119.11
-116.38
-114.94
-121.57
-137.73
-162.27
-191.89
-223.11
-252.90
-272.33
-275.34
-261.62
-248.95
-243.59
-244.06
-239.75
-222.53
-187.22
-133.39
-66.73
4.06
70.87
131.33
185.96
237.31
287.63
338.23
388.44
434.94
473.87
502.64
522.22
533.75
537.87
534.04
521.50
499.67
468.29
428.55
383.61
339.12
300.16
269.98
248.95
235.20
225.27
215.01
201.11
182.24
159.67
135.89
113.43
93.64
76.25
59.56
40.95
18.21
-9.59
-42.03
-78.20
-116.94
-156.26
-192.30
-219.20
-230.53
-222.14
-194.83
-154.98
-112.54
-77.20
-54.73
-45.63
-46.49
-52.88
-61.83
-72.68
-86.25
-103.16
-123.24
-145.77
-170.35
-197.53
-228.80
-265.95
-310.37
-361.82
-417.18
-470.02
-511.50
-532.55
-526.88
-493.19
-435.48
-360.82
-276.00
-185.17
-90.03
7.74
103.66
189.61
256.00
295.78
307.84
297.67
274.68
247.83
222.22
198.24
173.24
144.43
111.20
75.11
38.58
2.94
-32.80
-71.98
-119.11
-177.99
-249.52
-329.80
-410.08
-478.42
-523.24
-537.29
-520.27
-478.54
-422.35
-361.55
-302.15
-245.43
-189.09
-129.51
-63.60
10.20
91.48
177.26
261.59
335.82
390.27
417.28
414.10
383.63
333.45
272.56
208.19
144.08
80.55
15.69
-53.18
-128.29
-210.35
-297.33
-383.74
-461.07
-519.96
-553.48
-560.07
-544.05
-513.82
-478.20
-443.08
-410.10
-377.75
-343.77
-307.36
-269.57
-232.45
-197.29
-163.61
-129.31
-91.82
-49.12
-0.33
53.79
111.00
167.20
215.99
248.96
257.42
235.58
183.77
109.99
28.14
-46.34
-101.89
-134.33
-146.94
-147.27
-142.72
-137.52
-132.37
-126.36
-119.24
-112.51
-108.54
-108.49
-110.82
-111.33
-104.86
-87.77
-59.54
-22.57
19.13
61.89
103.15
140.99
173.36
197.79
212.21
216.28
212.05
203.36
194.26
187.33
183.18
181.38
181.64
184.62
191.24
201.59
213.92
225.24
233.01
236.85
239.48
246.02
262.27
292.51
337.46
392.86
449.94
497.40
524.82
526.32
502.27
458.89
405.19
348.88
293.79
239.25
181.76
117.48
44.60
-35.62
-118.91
-199.05
-269.33
-323.98
-359.48
-375.12
-372.78
-355.66
-327.19
-290.18
-246.87
-199.49
-150.57
-102.72
-57.90
-16.57
22.34
60.86
101.24
145.17
193.37
245.09
297.57
345.70
382.67
401.65
398.28
372.67
329.62
276.81
222.02
170.63
124.39
82.12
41.30
-0.56
-45.54
-95.31
-150.93
-211.71
-273.48
-328.93
-369.31
-387.55
-381.03
-352.69
-309.70
-260.60
-212.20
-166.58
-122.93
-79.57
-35.83
7.53
49.03
87.48
122.56
154.81
187.79
224.48
266.19
312.05
360.11
408.51
455.88
500.62
540.32
575.57
604.98
624.97
630.80
619.44
591.98
553.56
511.40
472.22
445.58
436.02
441.68
455.26
467.87
473.24
469.41
458.02
408.53
306.59
157.19
-14.90
-179.13
-314.46
-413.71
-479.41
-518.38
-538.21
-540.39
-526.81
-501.23
-469.96
-439.65
-414.74
-397.16
-387.06
-383.78
-382.61
-380.57
-377.63
-376.65
-381.25
-389.39
-398.66
-407.03
-412.85
-412.86
-405.63
-392.07
-375.30
-359.37
-351.78
-353.20
-362.23
-375.11
-384.70
-383.56
-366.77
-334.15
-290.56
-244.17
-203.06
-173.07
-155.73
-148.20
-145.89
-145.36
-144.82
-143.74
-141.88
-138.08
-130.86
-118.54
-100.17
-76.16
-48.21
-18.74
10.06
36.87
61.78
85.55
109.34
134.04
159.75
185.58
210.10
231.97
250.40
265.73
279.00
291.68
305.22
320.83
339.50
362.04
388.64
418.04
447.05
470.65
483.23
480.66
461.88
429.39
388.11
343.43
299.41
258.01
219.68
184.48
152.85
125.56
103.11
85.03
69.79
55.44
40.46
24.33
7.47
-9.09
-24.29
-37.43
-48.16
-56.34
-61.97
-65.10
-65.86
-64.61
-61.81
-58.08
-54.03
-50.26
-47.23
-45.33
-44.77
-45.53
-47.39
-49.86
-52.32
-54.17
-55.02
-54.69
-53.36
-51.34
-49.00
-46.62
-44.26
-41.88
-39.50
-37.17
-35.07
-33.43
-32.31
-31.71
-31.47
-31.43
-31.57
-31.91
-32.47
-33.28
-34.18
-35.01
-35.63
-35.97
-36.08
-36.10
-36.15
-36.27
-36.44
-36.61
-36.76
-36.98
-37.37
-38.02
-38.94
-40.03
-41.19
-42.46
-43.97
-45.84
-47.98
-49.87
-50.70
-49.60
-46.01
-40.04
-32.45
-24.30
-16.72
-10.42
-5.69
-2.47
-0.49
0.53
0.76
0.30
-0.82
-2.56
-4.80
-7.26
-9.58
-11.24
-11.84
-11.16
-9.29
-6.64
-3.81
-1.38
0.23
0.94
0.88
0.30
-0.57
-1.60
-2.80
-4.14
-5.54
-6.93
-8.19
-9.32
-10.42
-11.56
-12.75
-13.90
-14.85
-15.49
-15.82
-15.92
-15.94
-15.97
-16.08
-16.31
-16.71
-17.29
-18.07
-19.05
-20.31
-21.99
-24.27
-27.10
-30.09
-32.45
-33.18
-31.48
-27.13
-20.61
-13.04
-5.67
0.54
5.17
8.33
10.35
11.44
11.61
10.64
8.37
4.96
0.92
-2.94
-5.80
-7.10
-6.76
-5.09
-2.68
-0.15
2.08
3.81
5.12
6.07
6.69
6.84
6.31
4.99
2.99
0.65
-1.68
-3.80
-5.80
-7.89
-10.16
-12.48
-14.44
-15.66
-16.02
-15.75
-15.32
-15.13
-15.34
-15.83
-16.44
-17.15
-18.21
-19.96
-22.59
-25.77
-28.76
-30.50
-30.04
-26.96
-21.43
-14.33
-6.76
0.24
5.96
10.15
12.85
14.22
14.32
13.20
10.92
7.73
4.13
0.68
-2.07
-3.78
-4.33
-3.79
-2.37
-0.39
1.80
3.85
5.53
6.73
7.49
7.90
7.96
7.59
6.56
4.75
2.21
-0.70
-3.50
-5.80
-7.49
-8.84
-10.29
-12.22
-14.73
-17.55
-20.25
-22.38
-23.74
-24.42
-24.73
-25.12
-26.00
-27.63
-30.11
-33.29
-36.76
-39.86
-41.71
-41.41
-38.32
-32.30
-23.87
-14.09
-4.22
4.57
11.60
16.73
20.14
22.15
22.97
22.58
20.98
18.29
14.89
11.34
8.30
6.28
5.60
6.34
8.30
11.14
14.35
17.38
19.74
21.07
21.29
20.53
19.06
17.18
15.13
12.98
10.73
8.34
5.80
3.15
0.53
-1.93
-4.13
-6.00
-7.61
-9.05
-10.48
-12.07
-13.89
-15.89
-18.00
-20.02
-21.76
-23.11
-24.05
-24.81
-25.78
-27.48
-30.39
-34.72
-40.09
-45.56
-49.62
-50.69
-47.66
-40.37
-29.74
-17.44
-5.29
5.33
13.71
19.83
23.96
26.37
27.20
26.48
24.33
21.10
17.32
13.64
10.64
8.79
8.37
9.45
11.86
15.24
19.15
23.06
26.54
29.21
30.71
30.83
29.50
26.94
23.69
20.51
18.00
16.40
15.31
13.94
11.58
7.94
3.49
-0.83
-4.04
-5.64
-5.74
-5.03
-4.29
-4.11
-4.72
-6.08
-8.02
-10.40
-13.07
-15.80
-18.41
-20.71
-22.66
-24.57
-26.86
-29.99
-34.29
-39.64
-45.36
-50.24
-52.79
-51.69
-46.26
-36.78
-24.47
-11.09
1.64
12.40
20.54
26.03
29.09
30.04
29.21
26.87
23.43
19.37
15.28
11.76
9.33
8.36
8.96
11.00
14.07
17.64
21.19
24.31
26.74
28.34
29.09
28.98
28.02
26.30
24.00
21.35
18.60
15.98
13.56
11.35
9.31
7.34
5.40
3.55
1.91
0.64
-0.15
-0.52
-0.71
-1.12
-2.09
-3.77
-6.07
-8.67
-11.18
-13.38
-15.22
-16.81
-18.39
-20.24
-22.63
-25.80
-29.82
-34.38
-38.72
-41.66
-41.92
-38.66
-31.77
-22.00
-10.71
0.61
10.81
19.17
25.46
29.66
31.76
31.72
29.59
25.60
20.30
14.46
8.96
4.64
2.08
1.55
3.00
6.06
10.18
14.79
19.31
23.26
26.27
28.05
28.44
27.47
25.33
22.44
19.28
16.21
13.41
10.80
8.15
5.26
2.11
-1.07
-3.95
-6.21
-7.74
-8.68
-9.44
-10.42
-11.89
-13.91
-16.26
-18.57
-20.52
-22.00
-23.14
-24.32
-25.96
-28.44
-32.01
-36.65
-42.03
-47.42
-51.68
-53.46
-51.54
-45.30
-35.00
-21.83
-7.55
6.06
17.67
26.61
32.70
35.93
36.37
34.11
29.56
23.57
17.32
12.02
8.48
6.80
6.59
7.29
8.57
10.50
13.38
17.34
22.09
26.87
30.73
32.99
33.39
32.14
29.73
26.64
23.24
19.74
16.18
12.60
9.02
5.49
2.12
-0.89
-3.30
-4.96
-5.90
-6.39
-6.87
-7.82
-9.63
-12.37
-15.86
-19.70
-23.40
-26.54
-28.94
-30.68
-32.16
-34.00
-36.80
-41.04
-46.80
-53.56
-60.26
-65.36
-67.16
-64.41
-56.60
-44.24
-28.83
-12.32
3.36
16.77
27.14
34.30
38.42
39.85
38.96
36.17
32.06
27.27
22.59
18.76
16.36
15.67
16.65
18.94
22.01
25.43
28.86
32.15
35.21
37.80
39.55
40.07
39.00
36.31
32.35
27.70
23.05
18.93
15.55
12.85
10.53
8.27
5.89
3.36
0.83
-1.42
-3.22
-4.49
-5.35
-6.15
-7.24
-8.96
-11.44
-14.62
-18.20
-21.84
-25.17
-28.01
-30.41
-32.66
-35.20
-38.53
-43.04
-48.72
-55.03
-60.78
-64.39
-64.26
-59.31
-49.39
-35.40
-19.02
-2.36
12.66
24.71
33.13
37.98
39.74
39.08
36.66
33.02
28.60
23.84
19.33
15.73
13.74
13.84
16.04
19.88
24.53
29.07
32.87
35.66
37.52
38.68
39.19
38.93
37.66
35.19
31.58
27.24
22.74
18.65
15.37
12.98
11.31
10.01
8.66
7.01
4.97
2.71
0.64
-0.90
-1.68
-1.80
-1.67
-1.90
-3.01
-5.30
-8.73
-13.09
-18.04
-23.17
-28.03
-32.22
-35.46
-37.86
-40.02
-42.88
-47.25
-53.22
-59.71
-64.58
-65.50
-60.85
-50.54
-36.05
-19.75
-3.94
9.91
21.32
30.37
37.17
41.58
43.11
41.46
36.87
30.23
22.96
16.55
12.13
10.34
11.13
13.96
18.07
22.70
27.21
31.24
34.60
37.13
38.61
38.81
37.50
34.68
30.70
26.13
21.69
17.98
15.26
13.46
12.15
10.86
9.23
7.19
4.95
2.95
1.54
0.85
0.69
0.56
-0.04
-1.45
-3.67
-6.35
-8.96
-11.10
-12.62
-13.77
-15.04
-16.94
-19.93
-24.18
-29.60
-35.75
-41.84
-46.69
-48.99
-47.58
-41.87
-32.18
-19.68
-6.07
6.91
17.97
26.55
32.56
36.21
37.67
36.94
34.01
29.06
22.63
15.67
9.36
4.84
2.87
3.62
6.71
11.34
16.53
21.48
25.67
28.78
30.69
31.27
30.38
28.05
24.53
20.33
16.14
12.47
9.47
6.96
4.52
1.79
-1.27
-4.37
-7.10
-9.11
-10.36
-11.14
-11.85
-12.94
-14.65
-17.00
-19.87
-22.99
-26.01
-28.68
-30.90
-32.85
-35.05
-38.23
-43.01
-49.54
-57.06
-64.00
-68.27
-67.99
-62.21
-51.24
-36.56
-20.32
-4.64
9.03
20.01
28.20
33.84
37.10
38.00
36.60
33.08
27.91
21.96
16.24
11.82
9.55
9.74
12.22
16.30
21.11
25.84
30.01
33.36
35.89
37.56
38.23
37.78
36.19
33.60
30.24
26.21
21.54
16.33
10.84
5.67
1.50
-1.24
-2.65
-3.30
-3.89
-4.87
-6.13
-7.30
-8.11
-8.71
-9.72
-11.75
-15.01
-19.00
-22.80
-25.61
-27.27
-28.35
-29.81
-32.65
-37.34
-43.75
-51.18
-58.44
-64.15
-66.84
-65.17
-58.51
-47.07
-32.08
-15.57
0.24
13.58
23.50
29.93
33.42
34.65
34.16
32.26
29.13
25.04
20.45
16.10
12.84
11.42
12.15
14.85
18.84
23.25
27.38
30.85
33.68
36.05
37.98
39.22
39.34
37.97
35.09
31.08
26.55
22.16
18.34
15.23
12.78
10.79
9.08
7.49
5.85
4.08
2.16
0.18
-1.67
-3.20
-4.34
-5.27
-6.33
-7.97
-10.46
-13.81
-17.68
-21.58
-24.97
-27.62
-29.63
-31.44
-33.71
-37.02
-41.74
-47.78
-54.45
-60.47
-64.24
-64.15
-59.19
-49.31
-35.49
-19.57
-3.62
10.60
21.96
30.06
35.02
37.18
36.92
34.59
30.55
25.35
19.70
14.45
10.51
8.53
8.82
11.20
15.09
19.73
24.41
28.65
32.17
34.88
36.63
37.25
36.59
34.58
31.39
27.40
23.06
18.78
14.85
11.41
8.55
6.32
4.73
3.73
3.14
2.73
2.26
1.52
0.48
-0.78
-2.09
-3.34
-4.51
-5.80
-7.53
-9.93
-13.02
-16.51
-19.86
-22.59
-24.45
-25.60
-26.64
-28.27
-31.14
-35.58
-41.39
-47.77
-53.34
-56.49
-55.69
-50.09
-39.82
-26.08
-10.79
3.99
16.55
25.79
31.35
33.45
32.74
30.12
26.48
22.49
18.54
14.68
10.88
7.35
4.67
3.59
4.78
8.29
13.56
19.51
24.94
29.04
31.51
32.49
32.33
31.23
29.31
26.51
22.82
18.47
13.98
9.92
6.79
4.75
3.62
2.87
2.05
0.89
-0.50
-1.78
-2.61
-2.81
-2.56
-2.27
-2.39
-3.29
-5.10
-7.63
-10.55
-13.44
-15.92
-17.86
-19.32
-20.59
-22.12
-24.36
-27.59
-31.79
-36.46
-40.76
-43.59
-43.84
-40.71
-33.94
-24.01
-12.01
0.61
12.43
22.40
29.95
34.97
37.60
37.92
36.04
32.08
26.42
19.81
13.23
7.74
4.18
2.90
3.79
6.40
10.12
14.35
18.62
22.54
25.78
28.04
29.04
28.63
26.77
23.62
19.57
15.16
11.03
7.74
5.49
4.08
2.99
1.59
-0.45
-2.98
-5.48
-7.27
-7.95
-7.67
-7.07
-6.94
-7.89
-10.00
-12.85
-15.83
-18.38
-20.25
-21.59
-22.77
-24.25
-26.45
-29.65
-33.94
-38.99
-43.96
-47.51
-48.04
-44.17
-35.42
-22.43
-6.89
8.97
23.09
34.14
41.65
45.88
47.37
46.62
43.97
39.72
34.23
28.09
22.07
16.93
13.26
11.33
11.07
12.19
14.31
17.04
20.17
23.42
26.45
28.79
29.84
29.02
26.07
21.07
14.54
7.34
0.31
-5.84
-10.75
-14.48
-17.34
-19.79
-22.17
-24.59
-26.95
-28.97
-30.33
-30.91
-30.85
-30.55
-30.63
-31.65
-33.97
-37.61
-42.13
-46.77
-50.72
-53.39
-54.67
-55.00
-55.18
-56.12
-58.45
-62.22
-66.79
-70.92
-73.02
-71.62
-65.80
-55.47
-41.47
-25.39
-9.03
5.94
18.44
28.04
34.74
38.78
40.40
39.76
37.09
32.74
27.28
21.45
16.07
11.82
9.16
8.19
8.67
10.19
12.22
14.33
16.21
17.67
18.52
18.58
17.60
15.41
12.05
7.83
3.25
-1.12
-4.95
-8.22
-11.19
-14.21
-17.38
-20.44
-22.84
-24.07
-23.87
-22.47
-20.43
-18.39
-16.77
-15.63
-14.74
-13.77
-12.49
-10.94
-9.27
-7.78
-6.80
-6.68
-7.73
-10.22
-14.02
-18.50
-22.49
-24.54
-23.37
-18.44
-10.17
0.11
10.68
20.06
27.40
32.52
35.76
37.49
37.88
36.88
34.33
30.26
25.09
19.52
14.43
10.61
8.59
8.57
10.47
13.92
18.40
23.31
27.96
31.76
34.28
35.29
34.84
33.17
30.61
27.48
23.98
20.22
16.30
12.24
8.11
4.03
0.09
-3.63
-7.12
-10.46
-13.69
-16.78
-19.63
-22.06
-23.96
-25.39
-26.62
-28.05
-30.15
-33.24
-37.53
-43.05
-49.53
-56.40
-62.66
-67.05
-68.32
-65.62
-58.88
-48.90
-37.13
-25.12
-14.18
-5.03
2.18
7.55
11.19
13.15
13.41
12.07
9.59
6.63
4.08
2.77
3.24
5.63
9.72
15.00
20.88
26.82
32.36
37.16
40.99
43.62
44.95
44.92
43.63
41.35
38.48
35.42
32.51
29.73
26.83
23.47
19.44
14.93
10.46
6.61
3.76
1.89
0.57
-0.74
-2.40
-4.53
-7.10
-10.14
-13.69
-17.61
-21.36
-23.81
-23.57
-19.52
-11.40
0.02
13.11
25.94
36.91
45.13
50.42
53.10
53.55
52.08
48.85
43.99
37.84
31.05
24.50
19.16
15.74
14.54
15.40
17.74
20.82
23.97
26.67
28.59
29.50
29.22
27.68
24.96
21.32
17.16
12.88
8.74
4.81
1.04
-2.68
-6.35
-9.85
-12.95
-15.46
-17.36
-18.81
-20.14
-21.72
-23.77
-26.29
-29.08
-31.88
-34.44
-36.77
-38.98
-41.29
-43.99
-47.40
-51.82
-57.40
-63.75
-69.72
-73.49
-73.02
-66.89
-55.02
-38.82
-20.77
-3.54
10.90
21.68
28.88
33.10
34.93
34.73
32.73
29.21
24.66
19.84
15.56
12.54
11.32
12.05
14.52
18.28
22.68
27.13
31.24
34.73
37.52
39.51
40.54
40.39
38.96
36.25
32.58
28.37
24.10
20.18
16.82
14.05
11.78
9.83
8.03
6.26
4.48
2.73
1.11
-0.32
-1.53
-2.53
-3.48
-4.57
-6.07
-8.25
-11.25
-14.97
-19.08
-23.08
-26.52
-29.23
-31.31
-33.19
-35.46
-38.67
-43.20
-49.07
-55.75
-62.12
-66.50
-67.02
-62.32
-52.04
-37.09
-19.53
-1.85
13.76
25.89
34.08
38.67
40.24
39.54
37.16
33.58
29.25
24.62
20.17
16.38
13.74
12.61
13.19
15.44
19.05
23.53
28.27
32.59
35.92
37.82
38.10
36.88
34.48
31.35
27.93
24.54
21.42
18.70
16.43
14.59
13.02
11.49
9.83
8.05
6.32
4.92
3.99
3.44
2.97
2.18
0.92
-0.71
-2.36
-3.75
-4.79
-5.78
-7.18
-9.38
-12.50
-16.28
-20.22
-23.81
-26.67
-28.74
-30.22
-31.52
-33.20
-35.86
-39.84
-45.06
-50.77
-55.56
-57.73
-55.79
-49.02
-37.80
-23.45
-7.80
7.24
20.28
30.46
37.46
41.35
42.39
41.00
37.66
32.98
27.54
22.01
17.00
13.08
10.71
10.13
11.30
13.92
17.53
21.58
25.61
29.23
32.16
34.16
34.99
34.53
32.80
29.99
26.52
22.87
19.40
16.28
13.48
10.86
8.36
6.04
4.09
2.65
1.70
1.04
0.32
-0.68
-2.00
-3.40
-4.59
-5.34
-5.69
-6.02
-6.79
-8.40
-10.95
-14.17
-17.55
-20.60
-23.04
-24.85
-26.36
-28.02
-30.34
-33.62
-37.77
-42.23
-45.91
-47.39
-45.44
-39.48
-29.84
-17.76
-4.94
6.98
16.88
24.28
29.18
31.75
32.19
30.65
27.30
22.49
16.81
10.90
5.52
1.27
-1.45
-2.52
-2.03
-0.29
2.30
5.31
8.33
11.05
13.23
14.70
15.41
15.40
14.73
13.56
11.96
10.04
7.90
5.63
3.32
1.08
-1.08
-3.16
-5.14
-7.00
-8.55
-9.63
-10.10
-10.03
-9.66
-9.40
-9.58
-10.40
-11.80
-13.49
-15.16
-16.55
-17.57
-18.37
-19.19
-20.36
-22.25
-25.11
-28.95
-33.53
-38.17
-41.90
-43.73
-42.78
-38.68
-31.61
-22.27
-11.73
-1.22
8.18
15.67
20.88
23.82
24.74
23.98
21.86
18.62
14.52
9.91
5.26
1.11
-1.99
-3.72
-3.95
-2.80
-0.55
2.50
6.03
9.63
12.87
15.32
16.63
16.63
15.45
13.39
10.94
8.53
6.44
4.77
3.32
1.70
-0.41
-3.16
-6.32
-9.31
-11.52
-12.50
-12.28
-11.32
-10.29
-9.68
-9.73
-10.27
-11.00
-11.73
-12.43
-13.27
-14.50
-16.32
-18.84
-22.09
-25.92
-29.92
-33.32
-35.18
-34.59
-31.02
-24.52
-15.85
-6.16
3.28
11.46
17.73
21.95
24.22
24.81
23.92
21.71
18.27
13.84
8.82
3.83
-0.39
-3.24
-4.37
-3.83
-1.96
0.77
3.89
7.01
9.84
12.12
13.63
14.25
13.93
12.79
11.03
8.88
6.55
4.23
2.01
-0.09
-2.12
-4.24
-6.53
-9.03
-11.69
-14.29
-16.57
-18.30
-19.36
-19.80
-19.87
-19.92
-20.32
-21.35
-23.20
-25.93
-29.44
-33.35
-36.99
-39.35
-39.26
-35.88
-28.97
-19.21
-8.01
2.96
12.33
19.36
24.00
26.55
27.32
26.46
23.95
19.88
14.61
8.86
3.52
-0.56
-2.84
-3.21
-1.89
0.57
3.63
6.84
9.90
12.64
14.99
16.83
17.99
18.26
17.45
15.52
12.64
9.13
5.44
1.96
-1.09
-3.67
-5.95
-8.21
-10.68
-13.45
-16.43
-19.34
-21.94
-24.02
-25.55
-26.74
-27.92
-29.57
-32.16
-35.98
-40.90
-46.30
-50.99
-53.48
-52.45
-47.20
-38.00
-26.06
-13.14
-1.02
8.99
16.32
21.03
23.52
24.22
23.44
21.31
17.96
13.63
8.86
4.39
1.01
-0.62
-0.19
2.11
5.73
9.93
13.93
17.23
19.54
20.81
21.08
20.44
18.95
16.67
13.66
9.98
5.72
1.00
-3.86
-8.41
-12.10
-14.53
-15.63
-15.80
-15.66
-15.77
-16.40
-17.42
-18.49
-19.39
-20.20
-21.31
-23.21
-26.26
-30.51
-35.69
-41.21
-46.17
-49.44
-49.77
-46.26
-38.63
-27.47
-14.21
-0.68
11.43
20.95
27.44
31.08
32.33
31.73
29.72
26.58
22.63
18.24
13.91
10.25
7.87
7.17
8.28
10.99
14.77
19.02
23.11
26.56
29.06
30.37
30.38
29.08
26.59
23.18
19.23
15.11
11.16
7.58
4.45
1.80
-0.32
-1.94
-3.12
-4.05
-5.02
-6.32
-8.12
-10.42
-13.01
-15.59
-17.87
-19.76
-21.40
-23.12
-25.34
-28.46
-32.73
-38.08
-44.05
-49.67
-53.58
-54.36
-50.90
-42.93
-31.17
-17.19
-2.91
9.90
20.17
27.48
31.97
33.95
33.68
31.34
27.22
21.88
16.16
11.13
7.71
6.48
7.55
10.51
14.65
19.21
23.51
27.11
29.88
31.86
33.13
33.72
33.45
32.15
29.73
26.32
22.40
18.62
15.49
13.24
11.66
10.25
8.55
6.40
4.03
1.95
0.56
-0.06
-0.22
-0.57
-1.71
-3.91
-7.09
-10.81
-14.51
-17.83
-20.63
-23.03
-25.34
-27.88
-31.04
-35.13
-40.30
-46.31
-52.38
-57.11
-58.83
-56.16
-48.55
-36.63
-22.06
-6.96
6.73
17.79
25.81
31.01
33.78
34.46
33.15
29.93
25.07
19.19
13.34
8.71
6.31
6.65
9.52
14.11
19.47
24.75
29.51
33.57
36.71
38.57
38.79
37.21
34.17
30.45
26.84
23.85
21.50
19.44
17.33
15.11
12.99
11.27
10.07
9.22
8.42
7.45
6.30
5.22
4.41
3.87
3.32
2.35
0.53
-2.23
-5.75
-9.59
-13.26
-16.44
-19.07
-21.38
-23.77
-26.70
-30.53
-35.51
-41.56
-48.19
-54.37
-58.62
-59.38
-55.46
-46.60
-33.64
-18.30
-2.70
11.26
22.41
30.36
35.25
37.39
37.02
34.29
29.48
23.25
16.60
10.79
6.97
5.80
7.40
11.24
16.45
22.11
27.42
31.91
35.40
37.80
39.09
39.18
37.97
35.44
31.79
27.43
22.90
18.75
15.32
12.74
10.83
9.27
7.73
6.00
4.08
2.23
0.79
0.01
-0.09
0.09
-0.03
-1.01
-3.09
-6.05
-9.32
-12.32
-14.68
-16.46
-18.09
-20.12
-23.00
-27.03
-32.20
-38.16
-44.21
-49.20
-51.76
-50.65
-45.20
-35.65
-23.20
-9.55
3.55
14.81
23.62
29.85
33.60
35.02
34.15
31.11
26.28
20.32
14.23
9.06
5.75
4.82
6.31
9.76
14.38
19.34
23.91
27.69
30.50
32.26
32.85
32.18
30.14
26.90
22.86
18.60
14.68
11.41
8.71
6.31
3.82
1.10
-1.70
-4.21
-6.05
-7.05
-7.43
-7.68
-8.33
-9.75
-11.94
-14.59
-17.27
-19.64
-21.73
-23.87
-26.59
-30.41
-35.57
-41.91
-48.73
-54.89
-58.93
-59.42
-55.34
-46.49
-33.59
-18.23
-2.39
11.91
23.15
30.54
34.06
34.30
32.24
28.85
24.90
20.94
17.23
14.03
11.70
10.65
11.24
13.54
17.24
21.72
26.30
30.41
33.73
36.10
37.39
37.49
36.30
33.88
30.44
26.30
21.87
17.53
13.50
9.88
6.62
3.59
0.71
-2.00
-4.40
-6.31
-7.69
-8.72
-9.81
-11.44
-13.90
-17.15
-20.88
-24.63
-28.02
-31.02
-33.83
-36.89
-40.74
-45.84
-52.34
-59.89
-67.43
-73.22
-75.29
-72.00
-62.69
-48.11
-30.20
-11.51
5.57
19.50
29.69
36.25
39.64
40.28
38.49
34.70
29.52
23.88
18.84
15.27
13.69
14.13
16.21
19.37
23.14
27.13
31.16
35.09
38.68
41.58
43.35
43.59
42.13
39.15
35.04
30.43
25.86
21.75
18.33
15.57
13.27
11.15
8.90
6.34
3.58
0.92
-1.22
-2.51
-3.01
-3.18
-3.73
-5.37
-8.40
-12.58
-17.26
-21.63
-25.17
-27.84
-30.06
-32.57
-36.12
-41.11
-47.50
-54.63
-61.21
-65.56
-66.00
-61.33
-51.37
-37.06
-20.26
-3.28
11.88
23.96
32.51
37.79
40.36
40.72
39.27
36.30
32.12
27.23
22.31
18.14
15.45
14.68
15.88
18.70
22.54
26.72
30.67
34.01
36.53
38.14
38.72
38.19
36.55
33.86
30.35
26.37
22.28
18.41
15.00
12.12
9.69
7.53
5.38
3.09
0.67
-1.69
-3.65
-5.00
-5.76
-6.26
-7.04
-8.57
-10.99
-14.14
-17.63
-21.17
-24.61
-27.96
-31.21
-34.34
-37.33
-40.38
-43.94
-48.47
-53.91
-59.30
-62.80
-62.31
-56.36
-44.83
-29.19
-11.92
4.40
17.91
27.91
34.58
38.46
40.02
39.53
37.04
32.80
27.39
21.62
16.43
12.56
10.44
10.13
11.43
13.95
17.30
21.07
24.87
28.39
31.29
33.34
34.34
34.15
32.73
30.15
26.67
22.67
18.68
15.11
12.16
9.71
7.41
4.89
1.97
-1.16
-4.00
-6.01
-6.93
-6.91
-6.55
-6.59
-7.54
-9.56
-12.37
-15.51
-18.60
-21.45
-24.10
-26.71
-29.48
-32.65
-36.47
-41.15
-46.60
-52.20
-56.69
-58.40
-55.85
-48.34
-36.41
-21.72
-6.50
7.20
18.10
25.86
30.83
33.56
34.46
33.62
30.95
26.54
20.78
14.45
8.57
4.07
1.52
1.07
2.41
5.01
8.44
12.36
16.56
20.83
24.72
27.66
29.05
28.59
26.45
23.21
19.68
16.48
13.86
11.62
9.39
6.77
3.70
0.43
-2.62
-5.02
-6.54
-7.24
-7.45
-7.61
-8.18
-9.42
-11.36
-13.83
-16.47
-18.90
-20.92
-22.53
-24.04
-25.91
-28.66
-32.67
-37.92
-43.82
-49.25
-52.66
-52.51
-47.85
-38.66
-26.04
-11.82
1.96
13.74
22.66
28.64
32.03
33.15
32.24
29.38
24.74
18.81
12.34
6.31
1.69
-0.84
-1.02
0.93
4.43
8.74
13.20
17.30
20.76
23.46
25.28
26.10
25.85
24.53
22.33
19.48
16.14
12.39
8.32
4.06
-0.02
-3.44
-5.84
-7.13
-7.65
-7.94
-8.53
-9.70
-11.38
-13.25
-15.05
-16.62
-17.98
-19.32
-20.80
-22.60
-24.94
-28.08
-32.22
-37.27
-42.69
-47.37
-49.81
-48.61
-42.98
-33.22
-20.63
-7.14
5.34
15.51
22.89
27.61
30.10
30.67
29.44
26.49
21.98
16.40
10.49
5.09
0.93
-1.45
-1.83
-0.24
3.00
7.39
12.31
17.08
21.11
23.97
25.45
25.54
24.41
22.28
19.40
15.99
12.21
8.23
4.22
0.35
-3.20
-6.26
-8.69
-10.45
-11.62
-12.45
-13.24
-14.25
-15.61
-17.22
-18.87
-20.33
-21.49
-22.46
-23.59
-25.27
-27.91
-31.70
-36.45
-41.46
-45.51
-47.12
-45.04
-38.67
-28.40
-15.60
-2.20
9.95
19.53
26.07
29.76
31.11
30.61
28.53
24.94
19.99
14.06
7.86
2.38
-1.46
-3.07
-2.34
0.35
4.31
8.85
13.40
17.57
21.11
23.78
25.31
25.47
24.16
21.50
17.81
13.56
9.21
5.16
1.64
-1.29
-3.72
-5.84
-7.82
-9.76
-11.63
-13.29
-14.60
-15.47
-15.93
-16.26
-16.83
-18.00
-20.08
-23.16
-27.19
-31.92
-36.87
-41.30
-44.23
-44.62
-41.69
-35.20
-25.67
-14.25
-2.44
8.47
17.57
24.46
29.07
31.38
31.33
28.94
24.41
18.35
11.82
5.96
1.83
0.06
0.69
3.23
6.80
10.46
13.54
15.79
17.36
18.67
19.98
21.16
21.68
20.86
18.31
14.30
9.66
5.44
2.40
0.55
-0.74
-2.32
-4.79
-8.09
-11.63
-14.67
-16.70
-17.66
-17.97
-18.23
-19.01
-20.77
-23.73
-27.92
-33.05
-38.32
-42.51
-44.15
-41.96
-35.47
-25.21
-12.67
0.22
11.72
20.81
27.20
31.17
33.10
33.13
31.20
27.30
21.67
15.14
8.83
3.88
1.10
0.75
2.53
5.79
9.81
13.94
17.73
20.90
23.28
24.76
25.19
24.37
22.15
18.53
13.77
8.44
3.20
-1.39
-5.09
-8.15
-11.08
-14.36
-18.17
-22.24
-25.94
-28.67
-30.10
-30.37
-30.11
-30.14
-31.26
-34.04
-38.66
-44.81
-51.58
-57.58
-61.13
-60.67
-55.30
-45.16
-31.44
-16.06
-1.10
11.82
21.80
28.72
32.90
34.81
34.75
32.95
29.61
25.12
20.11
15.45
12.02
10.56
11.39
14.31
18.65
23.49
27.92
31.32
33.44
34.32
34.16
33.10
31.19
28.46
24.90
20.70
16.17
11.67
7.53
3.98
1.10
-1.17
-2.95
-4.45
-5.88
-7.46
-9.37
-11.70
-14.42
-17.44
-20.55
-23.59
-26.44
-29.10
-31.83
-35.02
-39.18
-44.70
-51.49
-58.73
-64.88
-67.95
-66.13
-58.54
-45.61
-29.06
-11.42
4.89
18.16
27.73
33.85
37.15
38.24
37.48
35.02
31.09
26.22
21.32
17.39
15.33
15.56
17.90
21.76
26.33
30.89
34.96
38.13
40.16
40.88
40.24
38.42
35.83
32.87
29.84
26.80
23.67
20.44
17.25
14.33
11.86
9.75
7.71
5.46
2.90
0.33
-1.71
-2.81
-2.91
-2.49
-2.31
-3.20
-5.64
-9.58
-14.45
-19.42
-23.73
-26.95
-29.20
-31.04
-33.20
-36.44
-41.19
-47.40
-54.52
-61.35
-66.13
-67.03
-62.57
-52.34
-37.33
-19.77
-2.47
12.11
22.55
28.82
31.75
32.52
31.91
30.20
27.35
23.47
19.15
15.34
13.08
13.02
15.17
18.93
23.39
27.74
31.44
34.36
36.56
38.11
38.92
38.79
37.51
35.01
31.43
27.11
22.48
17.95
13.84
10.38
7.64
5.57
4.04
2.79
1.63
0.42
-0.87
-2.11
-3.15
-3.96
-4.63
-5.39
-6.64
-8.64
-11.44
-14.83
-18.42
-21.75
-24.53
-26.72
-28.53
-30.38
-32.70
-35.91
-40.23
-45.58
-51.43
-56.67
-59.79
-59.20
-53.88
-43.77
-29.98
-14.46
0.59
13.37
22.94
29.13
32.28
32.91
31.49
28.33
23.91
18.89
14.12
10.51
8.76
9.11
11.37
14.97
19.17
23.34
27.08
30.19
32.65
34.40
35.30
35.18
33.89
31.39
27.92
23.85
19.70
15.96
12.98
10.86
9.52
8.67
8.03
7.38
6.59
5.65
4.64
3.63
2.67
1.72
0.63
-0.78
-2.67
-5.04
-7.69
-10.33
-12.73
-14.82
-16.76
-18.82
-21.27
-24.22
-27.68
-31.62
-35.93
-40.26
-43.93
-45.89
-45.09
-40.89
-33.33
-23.22
-11.82
-0.39
10.12
19.07
25.98
30.49
32.33
31.53
28.51
24.01
18.92
14.07
10.10
7.49
6.65
7.79
10.83
15.28
20.32
25.09
28.81
31.16
32.19
32.14
31.31
29.85
27.79
25.20
22.20
19.04
16.03
13.41
11.23
9.32
7.46
5.41
3.18
0.99
-0.83
-2.01
-2.52
-2.69
-3.04
-4.03
-5.90
-8.53
-11.51
-14.38
-16.76
-18.55
-19.88
-20.98
-22.22
-23.94
-26.46
-30.01
-34.53
-39.47
-43.79
-46.12
-45.12
-40.04
-31.08
-19.35
-6.59
5.37
15.18
22.20
26.42
28.27
28.18
26.46
23.30
18.90
13.75
8.56
4.13
1.24
0.30
1.36
4.13
8.08
12.60
17.14
21.18
24.33
26.37
27.22
26.96
25.79
23.89
21.46
18.70
15.78
12.96
10.43
8.32
6.57
4.99
3.38
1.73
0.21
-0.88
-1.34
-1.27
-1.04
-1.20
-2.16
-4.01
-6.44
-8.95
-11.11
-12.69
-13.83
-14.88
-16.26
-18.35
-21.42
-25.57
-30.60
-35.93
-40.53
-43.14
-42.58
-38.24
-30.35
-19.96
-8.69
1.87
10.55
16.81
20.74
22.75
23.26
22.53
20.63
17.53
13.36
8.54
3.74
-0.18
-2.46
-2.66
-0.84
2.48
6.51
10.47
13.72
15.92
17.05
17.25
16.76
15.80
14.50
12.92
11.05
8.87
6.44
3.92
1.41
-0.86
-2.81
-4.39
-5.54
-6.25
-6.59
-6.82
-7.46
-9.05
-11.84
-15.57
-19.39
-22.26
-23.50
-23.15
-22.05
-21.47
-22.45
-25.32
-29.61
-34.25
-37.92
-39.50
-38.27
-33.96
-26.83
-17.58
-7.30
2.74
11.43
18.11
22.53
24.87
25.42
24.40
21.99
18.37
13.88
9.11
4.75
1.48
-0.25
-0.36
0.91
3.10
5.71
8.40
10.96
13.31
15.35
16.91
17.68
17.37
15.80
13.10
9.65
5.95
2.49
-0.45
-2.81
-4.71
-6.34
-7.86
-9.45
-11.20
-13.12
-15.11
-16.90
-18.29
-19.14
-19.59
-20.04
-20.97
-22.75
-25.53
-29.15
-33.30
-37.44
-40.82
-42.55
-41.67
-37.52
-30.08
-20.09
-8.89
1.91
11.02
17.78
22.10
24.32
24.84
23.97
21.88
18.73
14.80
10.49
6.35
2.95
0.83
0.36
1.65
4.51
8.44
12.73
16.69
19.76
21.68
22.44
22.13
20.88
18.77
15.84
12.26
8.38
4.61
1.38
-1.15
-3.17
-5.12
-7.47
-10.49
-14.02
-17.60
-20.70
-22.90
-24.22
-24.96
-25.63
-26.73
-28.66
-31.67
-35.93
-41.38
-47.48
-53.17
-56.86
-56.93
-52.35
-43.15
-30.48
-16.34
-2.75
8.78
17.51
23.49
27.10
28.72
28.56
26.76
23.52
19.31
14.77
10.64
7.62
6.12
6.26
7.89
10.59
13.87
17.28
20.41
23.02
24.94
26.06
26.29
25.60
23.95
21.39
18.06
14.21
10.11
6.09
2.38
-0.85
-3.54
-5.70
-7.39
-8.85
-10.52
-12.88
-16.29
-20.70
-25.55
-29.98
-33.18
-34.87
-35.46
-35.89
-37.24
-40.27
-45.14
-51.46
-58.32
-64.48
-68.46
-68.82
-64.46
-55.09
-41.47
-25.38
-9.12
5.24
16.35
23.80
28.02
29.75
29.68
28.29
25.85
22.67
19.17
15.95
13.60
12.59
13.12
15.05
18.05
21.68
25.52
29.32
32.82
35.87
38.24
39.61
39.70
38.35
35.66
32.02
28.03
24.26
21.06
18.49
16.28
14.10
11.66
8.93
6.09
3.48
1.43
0.11
-0.63
-1.18
-2.07
-3.85
-6.86
-11.04
-15.99
-21.13
-25.79
-29.64
-32.60
-34.97
-37.31
-40.23
-44.24
-49.62
-56.18
-63.13
-69.08
-72.29
-71.19
-64.84
-53.42
-38.25
-21.43
-5.14
8.84
19.64
27.15
31.73
33.88
33.96
32.18
28.80
24.29
19.42
15.15
12.42
11.85
13.51
16.92
21.27
25.71
29.66
32.94
35.67
37.98
39.81
40.85
40.63
38.90
35.75
31.67
27.32
23.35
20.07
17.48
15.33
13.33
11.28
9.14
6.98
4.97
3.23
1.84
0.82
0.04
-0.73
-1.77
-3.39
-5.79
-8.94
-12.66
-16.62
-20.42
-23.81
-26.74
-29.34
-31.97
-35.11
-39.23
-44.58
-50.87
-57.19
-61.98
-63.43
-60.13
-51.64
-38.71
-23.16
-7.18
7.29
19.05
27.77
33.68
37.09
38.20
37.06
33.68
28.45
22.18
15.99
11.14
8.60
8.79
11.48
15.97
21.32
26.67
31.34
34.98
37.49
38.92
39.41
39.11
38.10
36.44
34.14
31.29
28.10
24.86
21.79
18.96
16.24
13.34
10.09
6.57
3.14
0.32
-1.47
-2.24
-2.40
-2.61
-3.62
-5.81
-9.14
-13.16
-17.22
-20.77
-23.58
-25.78
-27.81
-30.28
-33.75
-38.57
-44.68
-51.44
-57.62
-61.55
-61.51
-56.43
-46.22
-32.05
-15.97
-0.32
13.02
23.04
29.71
33.56
35.29
35.34
33.89
30.96
26.79
21.92
17.25
13.79
12.25
12.90
15.51
19.47
24.09
28.86
33.44
37.61
41.06
43.39
44.18
43.12
40.30
36.21
31.60
27.18
23.35
20.05
16.91
13.53
9.66
5.42
1.23
-2.44
-5.20
-6.91
-7.79
-8.29
-8.94
-10.22
-12.33
-15.16
-18.32
-21.30
-23.75
-25.61
-27.22
-29.19
-32.15
-36.54
-42.36
-48.96
-55.12
-59.18
-59.55
-55.19
-46.05
-33.14
-18.27
-3.47
9.64
20.13
27.76
32.76
35.42
35.94
34.43
31.07
26.22
20.53
14.77
9.76
6.28
4.83
5.58
8.35
12.62
17.69
22.87
27.57
31.39
34.10
35.49
35.44
33.95
31.14
27.37
23.12
18.83
14.80
11.11
7.62
4.15
0.56
-3.16
-6.87
-10.36
-13.43
-15.96
-17.95
-19.52
-20.81
-21.99
-23.23
-24.66
-26.44
-28.74
-31.79
-35.80
-40.78
-46.42
-51.98
-56.28
-57.94
-55.73
-48.97
-37.88
-23.62
-7.97
7.04
19.78
29.36
35.58
38.67
39.03
36.94
32.66
26.64
19.63
12.72
7.06
3.51
2.43
3.68
6.70
10.81
15.43
20.02
24.20
27.59
29.86
30.78
30.26
28.38
25.38
21.61
17.46
13.28
9.25
5.36
1.46
-2.67
-7.10
-11.63
-15.86
-19.30
-21.60
-22.80
-23.37
-24.03
-25.59
-28.58
-33.19
-39.11
-45.56
-51.38
-55.19
-55.65
-51.97
-44.07
-32.73
-19.43
-5.85
6.59
16.96
24.89
30.36
33.42
34.11
32.44
28.60
23.09
16.74
10.60
5.72
2.85
2.28
3.86
7.08
11.25
15.75
20.06
23.73
26.41
27.74
27.48
25.60
22.33
18.14
13.57
8.97
4.44
-0.16
-5.05
-10.30
-15.69
-20.79
-25.06
-28.16
-30.13
-31.36
-32.59
-34.63
-38.14
-43.42
-50.13
-57.17
-62.83
-65.21
-62.73
-54.80
-42.05
-26.18
-9.47
6.03
18.92
28.62
35.21
39.05
40.44
39.64
36.85
32.45
27.07
21.61
17.02
14.19
13.61
15.32
18.92
23.60
28.54
33.07
36.75
39.42
40.94
41.10
39.63
36.39
31.45
25.36
18.96
13.11
8.38
4.78
1.75
-1.51
-5.64
-10.79
-16.46
-21.79
-25.96
-28.58
-29.88
-30.66
-31.90
-34.54
-39.19
-45.96
-54.42
-63.45
-71.32
-75.90
-75.23
-68.16
-54.91
-37.10
-17.30
1.77
18.01
30.38
38.84
43.92
46.29
46.41
44.62
41.24
36.79
32.06
28.00
25.53
25.26
27.32
31.28
36.32
41.50
46.01
49.42
51.61
52.73
52.89
52.05
50.07
46.82
42.42
37.29
32.04
27.27
23.36
20.35
18.03
16.11
14.35
12.62
10.90
9.18
7.45
5.71
3.94
2.17
0.38
-1.56
-3.86
-6.76
-10.44
-14.87
-19.78
-24.82
-29.63
-34.01
-37.95
-41.63
-45.35
-49.46
-54.35
-60.35
-67.55
-75.54
-83.27
-89.03
-90.80
-86.92
-76.64
-60.54
-40.51
-19.19
0.74
17.26
29.40
37.24
41.49
43.07
42.73
40.93
38.01
34.41
30.79
28.02
26.90
27.88
30.88
35.32
40.38
45.30
49.55
52.90
55.27
56.54
56.54
55.12
52.27
48.27
43.63
38.93
34.65
31.00
27.93
25.34
23.15
21.39
20.15
19.36
18.81
18.26
17.51
16.55
15.58
14.73
14.01
13.19
11.86
9.73
6.71
2.98
-1.03
-4.90
-8.31
-11.15
-13.51
-15.63
-17.86
-20.51
-23.74
-27.51
-31.58
-35.65
-39.41
-42.81
-45.99
-49.28
-53.18
-58.17
-64.45
-71.74
-79.02
-84.57
-86.34
-82.62
-72.69
-57.26
-38.27
-18.31
0.19
15.60
27.27
35.33
40.24
42.39
42.07
39.53
35.20
29.84
24.46
20.15
17.83
17.98
20.55
25.01
30.51
36.10
41.05
44.88
47.42
48.71
48.84
47.87
45.85
42.85
39.02
34.73
30.38
26.41
23.11
20.52
18.49
16.78
15.21
13.75
12.55
11.74
11.37
11.28
11.13
10.52
9.13
6.85
3.85
0.53
-2.64
-5.29
-7.39
-9.26
-11.49
-14.63
-18.80
-23.63
-28.37
-32.34
-35.25
-37.42
-39.59
-42.55
-46.86
-52.60
-59.43
-66.63
-73.13
-77.54
-78.33
-74.22
-64.64
-50.21
-32.65
-14.41
2.10
15.25
24.43
30.00
32.78
33.56
32.79
30.68
27.31
23.04
18.58
14.88
12.91
13.31
16.08
20.57
25.69
30.28
33.62
35.59
36.62
37.35
38.16
38.95
39.19
38.30
36.02
32.66
28.90
25.45
22.70
20.54
18.56
16.37
13.84
11.23
9.02
7.54
6.81
6.55
6.23
5.39
3.82
1.64
-0.82
-3.23
-5.43
-7.54
-9.88
-12.83
-16.53
-20.84
-25.34
-29.50
-32.93
-35.49
-37.42
-39.24
-41.59
-45.11
-50.15
-56.58
-63.57
-69.64
-72.85
-71.46
-64.52
-52.29
-36.25
-18.69
-1.93
12.23
22.95
30.18
34.33
35.96
35.54
33.40
29.90
25.48
20.70
16.27
12.88
11.14
11.35
13.50
17.18
21.78
26.58
30.93
34.40
36.75
37.95
38.09
37.31
35.75
33.56
30.87
27.74
24.31
20.67
16.99
13.46
10.20
7.35
4.99
3.15
1.84
0.98
0.31
-0.47
-1.66
-3.38
-5.50
-7.74
-9.82
-11.62
-13.29
-15.20
-17.71
-20.96
-24.89
-29.17
-33.42
-37.32
-40.75
-43.81
-46.82
-50.23
-54.52
-59.96
-66.28
-72.50
-77.01
-77.95
-73.87
-64.26
-49.90
-32.66
-14.84
1.44
14.72
24.44
30.67
33.86
34.59
33.38
30.75
27.20
23.17
19.13
15.54
12.87
11.57
12.00
14.18
17.81
22.29
26.84
30.82
33.83
35.73
36.57
36.44
35.37
33.42
30.68
27.32
23.64
19.93
16.40
13.18
10.23
7.55
5.13
2.99
1.18
-0.27
-1.38
-2.25
-2.95
-3.62
-4.35
-5.23
-6.30
-7.64
-9.43
-11.96
-15.51
-20.09
-25.33
-30.45
-34.59
-37.18
-38.33
-38.82
-39.82
-42.40
-47.04
-53.47
-60.53
-66.62
-69.93
-68.95
-62.88
-51.85
-37.06
-20.42
-4.13
10.00
20.93
28.45
32.96
35.03
35.11
33.44
30.18
25.64
20.35
15.12
10.81
8.11
7.35
8.46
11.01
14.40
18.13
21.82
25.22
28.17
30.44
31.76
31.91
30.81
28.60
25.60
22.22
18.85
15.70
12.79
10.07
7.38
4.68
2.01
-0.56
-2.89
-4.86
-6.42
-7.55
-8.28
-8.72
-9.08
-9.62
-10.67
-12.49
-15.14
-18.45
-22.07
-25.60
-28.77
-31.52
-33.98
-36.35
-38.84
-41.66
-45.03
-49.12
-53.91
-58.87
-62.84
-64.23
-61.48
-53.72
-41.32
-25.85
-9.56
5.37
17.46
26.21
31.88
35.10
36.38
35.96
33.92
30.35
25.58
20.20
14.96
10.62
7.77
6.70
7.41
9.68
13.07
17.14
21.42
25.49
28.96
31.52
32.88
32.90
31.58
29.02
25.56
21.61
17.65
14.08
11.06
8.53
6.24
3.89
1.28
-1.51
-4.27
-6.64
-8.35
-9.38
-9.92
-10.38
-11.22
-12.75
-15.04
-17.87
-20.84
-23.50
-25.62
-27.21
-28.58
-30.18
-32.46
-35.84
-40.48
-46.22
-52.40
-57.87
-60.99
-60.21
-54.55
-44.13
-30.24
-14.95
-0.38
11.92
21.37
28.10
32.53
34.94
35.31
33.48
29.50
23.83
17.40
11.29
6.48
3.59
2.86
4.12
6.87
10.47
14.23
17.70
20.70
23.30
25.62
27.63
28.94
29.03
27.48
24.35
20.19
15.88
12.15
9.23
6.79
4.24
1.15
-2.47
-6.16
-9.29
-11.47
-12.72
-13.38
-14.05
-15.17
-16.83
-18.92
-21.16
-23.30
-25.28
-27.14
-29.03
-31.16
-33.79
-37.23
-41.74
-47.25
-53.05
-57.80
-59.67
-57.14
-49.52
-37.43
-22.65
-7.39
6.41
17.66
26.13
32.14
35.99
37.79
37.50
35.05
30.67
24.94
18.61
12.57
7.65
4.47
3.44
4.61
7.72
12.22
17.38
22.43
26.73
29.80
31.38
31.44
30.18
27.92
25.09
22.04
18.98
15.94
12.84
9.59
6.13
2.43
-1.46
-5.48
-9.51
-13.35
-16.77
-19.60
-21.81
-23.56
-25.16
-26.85
-28.79
-31.00
-33.45
-36.19
-39.43
-43.39
-48.15
-53.43
-58.45
-62.10
-63.14
-60.68
-54.41
-44.76
-32.66
-19.36
-6.09
6.18
16.71
24.97
30.63
33.43
33.33
30.54
25.62
19.41
12.93
7.17
3.00
0.93
1.08
3.23
6.80
11.07
15.36
19.11
22.06
24.14
25.38
25.87
25.58
24.39
22.21
19.08
15.22
11.10
7.19
3.85
1.15
-1.12
-3.36
-5.89
-8.86
-12.06
-15.03
-17.31
-18.58
-18.86
-18.55
-18.32
-18.88
-20.82
-24.36
-29.33
-35.05
-40.39
-43.98
-44.53
-41.12
-33.58
-22.59
-9.49
4.07
16.53
26.79
34.33
39.12
41.43
41.65
40.06
36.85
32.07
25.92
18.92
12.04
6.56
3.69
4.05
7.44
12.92
19.18
25.15
30.29
34.53
38.00
40.63
42.05
41.76
39.49
35.47
30.40
25.26
20.80
17.38
14.82
12.50
9.79
6.30
2.10
-2.29
-6.20
-9.06
-10.67
-11.32
-11.57
-12.07
-13.34
-15.70
-19.30
-24.02
-29.42
-34.58
-38.24
-38.96
-35.76
-28.44
-17.82
-5.48
6.84
17.70
26.28
32.33
35.89
37.03
35.77
32.23
26.75
19.97
12.83
6.32
1.29
-1.64
-2.31
-0.86
2.29
6.52
11.19
15.70
19.60
22.52
24.20
24.45
23.23
20.64
16.94
12.59
8.04
3.66
-0.40
-4.22
-8.02
-11.97
-16.06
-20.00
-23.32
-25.61
-26.74
-26.98
-26.96
-27.43
-29.02
-32.03
-36.33
-41.38
-46.19
-49.54
-50.17
-47.14
-40.17
-29.85
-17.51
-4.85
6.52
15.56
21.89
25.59
26.98
26.33
23.83
19.66
14.22
8.14
2.28
-2.49
-5.42
-6.11
-4.53
-1.07
3.61
8.65
13.22
16.71
18.82
19.56
19.19
17.96
16.05
13.45
10.12
6.05
1.38
-3.59
-8.53
-13.18
-17.41
-21.21
-24.58
-27.53
-30.06
-32.33
-34.58
-37.13
-40.15
-43.43
-46.21
-47.38
-45.79
-40.68
-32.09
-20.83
-8.28
3.97
14.61
22.88
28.52
31.69
32.63
31.59
28.79
24.55
19.43
14.28
10.03
7.49
6.98
8.28
10.82
13.93
17.16
20.30
23.28
25.93
27.85
28.49
27.40
24.46
20.05
14.85
9.59
4.78
0.58
-3.13
-6.53
-9.81
-13.02
-16.23
-19.58
-23.19
-27.23
-31.61
-35.90
-39.37
-41.10
-40.20
-36.22
-29.16
-19.70
-8.89
2.07
12.14
20.60
27.07
31.45
33.74
34.01
32.41
29.23
24.99
20.42
16.28
13.23
11.69
11.77
13.36
16.13
19.63
23.36
26.72
29.20
30.38
30.02
28.18
25.11
21.20
16.93
12.65
8.56
4.71
0.97
-2.89
-7.04
-11.51
-16.08
-20.31
-23.78
-26.25
-27.84
-29.11
-30.84
-33.81
-38.46
-44.64
-51.44
-57.39
-60.74
-60.03
-54.53
-44.52
-31.19
-16.28
-1.58
11.46
21.98
29.67
34.60
37.05
37.42
36.15
33.79
30.97
28.31
26.45
25.87
26.80
29.17
32.67
36.77
40.92
44.68
47.70
49.78
50.82
50.75
49.60
47.47
44.60
41.29
37.92
34.79
32.12
29.94
28.14
26.55
25.00
23.44
22.00
20.85
20.16
19.90
19.81
19.53
18.74
17.30
15.35
13.20
11.13
9.28
7.54
5.62
3.30
0.50
-2.58
-5.64
-8.37
-10.69
-12.74
-14.86
-17.37
-20.42
-23.93
-27.63
-31.17
-34.34
-37.13
-39.73
-42.47
-45.70
-49.73
-54.81
-60.91
-67.65
-74.05
-78.54
-79.32
-74.99
-65.07
-50.40
-32.96
-15.17
0.78
13.54
22.74
28.71
32.04
33.21
32.39
29.74
25.69
21.10
17.23
15.32
16.09
19.42
24.34
29.49
33.76
36.66
38.45
39.77
41.08
42.38
43.24
43.06
41.48
38.65
35.02
31.24
27.83
25.13
23.16
21.77
20.66
19.55
18.23
16.62
14.85
13.19
11.88
11.06
10.64
10.27
9.57
8.19
6.04
3.37
0.56
-1.95
-3.86
-5.24
-6.37
-7.71
-9.67
-12.46
-15.94
-19.77
-23.47
-26.69
-29.30
-31.43
-33.40
-35.59
-38.37
-42.01
-46.58
-51.81
-56.88
-60.56
-61.30
-57.92
-50.02
-38.26
-24.30
-10.16
2.43
12.44
19.70
24.57
27.45
28.62
28.12
26.05
22.84
19.26
16.25
14.65
14.86
16.79
19.90
23.47
26.88
29.78
32.02
33.65
34.72
35.24
35.14
34.35
32.85
30.69
28.05
25.14
22.21
19.48
17.08
15.07
13.41
12.02
10.87
9.91
9.16
8.64
8.33
8.16
8.05
7.88
7.52
6.87
5.82
4.32
2.44
0.33
-1.74
-3.55
-5.07
-6.42
-7.85
-9.65
-11.95
-14.68
-17.60
-20.43
-22.98
-25.20
-27.22
-29.21
-31.35
-33.76
-36.57
-39.92
-43.85
-48.16
-52.17
-54.81
-54.83
-51.31
-44.01
-33.62
-21.57
-9.52
1.14
9.61
15.72
19.67
21.71
21.99
20.56
17.58
13.53
9.21
5.63
3.65
3.69
5.58
8.60
11.87
14.74
16.98
18.87
20.83
23.14
25.67
27.92
29.28
29.38
28.23
26.12
23.38
20.25
16.91
13.63
10.82
8.91
8.14
8.30
8.80
8.94
8.31
7.06
5.75
4.98
4.98
5.43
5.67
5.08
3.44
0.96
-1.87
-4.54
-6.76
-8.43
-9.69
-10.76
-11.85
-13.16
-14.73
-16.54
-18.44
-20.20
-21.68
-22.86
-23.85
-24.83
-26.05
-27.71
-29.99
-32.97
-36.48
-39.97
-42.54
-43.07
-40.69
-35.18
-27.10
-17.66
-8.24
0.09
6.82
11.94
15.70
18.21
19.43
19.26
17.67
14.92
11.53
8.09
5.17
3.16
2.28
2.58
3.98
6.27
9.15
12.27
15.30
17.94
19.99
21.28
21.69
21.14
19.64
17.40
14.72
11.98
9.48
7.34
5.50
3.82
2.19
0.65
-0.62
-1.46
-1.83
-1.84
-1.75
-1.84
-2.25
-2.95
-3.75
-4.47
-5.05
-5.64
-6.54
-8.02
-10.21
-12.98
-16.01
-18.93
-21.51
-23.72
-25.68
-27.61
-29.68
-32.06
-34.91
-38.35
-42.30
-46.35
-49.64
-50.99
-49.34
-44.15
-35.76
-25.28
-14.26
-4.13
4.19
10.42
14.71
17.33
18.53
18.39
17.01
14.63
11.65
8.61
6.02
4.21
3.35
3.42
4.28
5.82
7.92
10.47
13.34
16.29
19.01
21.16
22.43
22.62
21.74
19.99
17.69
15.19
12.74
10.46
8.32
6.23
4.13
2.04
0.07
-1.64
-2.98
-3.97
-4.71
-5.38
-6.12
-7.07
-8.24
-9.73
-11.51
-13.57
-15.85
-18.14
-20.18
-21.81
-23.07
-24.41
-26.45
-29.69
-34.28
-39.84
-45.65
-50.94
-55.10
-57.67
-58.25
-56.34
-51.40
-43.27
-32.40
-20.00
-7.76
2.75
10.61
15.73
18.70
20.29
21.02
20.99
20.07
18.05
15.05
11.57
8.34
6.16
5.51
6.48
8.83
12.02
15.57
19.09
22.31
25.08
27.14
28.21
28.05
26.63
24.17
21.16
18.17
15.59
13.53
11.77
9.98
7.84
5.29
2.54
-0.08
-2.23
-3.74
-4.66
-5.25
-5.86
-6.78
-8.20
-10.18
-12.60
-15.28
-17.97
-20.47
-22.71
-24.81
-27.06
-29.85
-33.48
-38.10
-43.49
-49.02
-53.77
-56.61
-56.50
-52.79
-45.46
-35.15
-23.09
-10.73
0.57
9.86
16.75
21.24
23.58
24.05
22.88
20.29
16.62
12.38
8.25
5.00
3.21
3.19
4.86
7.86
11.67
15.79
19.82
23.45
26.42
28.48
29.42
29.10
27.56
25.08
22.10
19.08
16.34
13.98
11.81
9.58
7.12
4.46
1.87
-0.32
-1.90
-2.91
-3.68
-4.63
-6.07
-8.12
-10.63
-13.31
-15.94
-18.44
-20.88
-23.53
-26.66
-30.51
-35.19
-40.49
-45.87
-50.44
-53.05
-52.65
-48.54
-40.70
-29.90
-17.47
-4.95
6.28
15.39
22.04
26.29
28.38
28.49
26.76
23.36
18.68
13.34
8.19
4.12
1.88
1.86
4.03
7.92
12.82
17.94
22.57
26.29
28.87
30.29
30.58
29.80
28.11
25.71
22.91
20.04
17.32
14.68
11.83
8.45
4.44
0.13
-3.79
-6.62
-8.00
-8.12
-7.71
-7.61
-8.42
-10.17
-12.43
-14.65
-16.52
-18.13
-19.90
-22.34
-25.79
-30.32
-35.70
-41.43
-46.82
-50.78
-52.18
-49.99
-43.71
-33.65
-21.00
-7.46
5.24
15.86
23.81
29.05
31.81
32.32
30.73
27.23
22.27
16.59
11.20
7.19
5.30
5.82
8.43
12.36
16.74
20.83
24.27
27.06
29.40
31.41
32.93
33.62
33.05
31.10
28.01
24.31
20.57
17.13
14.01
11.01
7.96
4.86
2.00
-0.28
-1.80
-2.65
-3.26
-4.14
-5.64
-7.84
-10.48
-13.15
-15.54
-17.53
-19.25
-21.04
-23.30
-26.35
-30.46
-35.67
-41.70
-47.80
-52.73
-54.98
-53.20
-46.72
-35.93
-22.30
-7.87
5.36
16.04
23.75
28.72
31.47
32.36
31.49
28.80
24.46
19.01
13.43
8.84
6.17
5.89
7.87
11.54
16.11
20.82
25.06
28.51
30.96
32.34
32.59
31.69
29.68
26.75
23.23
19.52
16.02
12.96
10.31
7.89
5.41
2.79
0.17
-2.08
-3.53
-3.98
-3.59
-2.88
-2.53
-3.14
-4.93
-7.72
-11.01
-14.23
-17.02
-19.33
-21.47
-23.93
-27.22
-31.60
-36.94
-42.62
-47.53
-50.33
-49.76
-45.08
-36.38
-24.61
-11.35
1.66
13.02
21.92
28.12
31.79
33.14
32.36
29.60
25.19
19.74
14.17
9.50
6.62
6.07
7.85
11.50
16.28
21.36
26.01
29.71
32.17
33.34
33.33
32.36
30.69
28.58
26.22
23.72
21.10
18.33
15.39
12.26
9.00
5.76
2.74
0.18
-1.71
-2.86
-3.46
-3.89
-4.65
-6.09
-8.25
-10.90
-13.61
-16.01
-17.95
-19.59
-21.32
-23.60
-26.80
-31.12
-36.52
-42.57
-48.43
-52.78
-54.16
-51.38
-44.02
-32.66
-18.84
-4.56
8.34
18.60
25.75
29.93
31.60
31.25
29.27
25.99
21.80
17.27
13.08
9.97
8.58
9.26
11.94
16.16
21.17
26.19
30.57
33.88
35.96
36.76
36.33
34.77
32.30
29.26
26.06
23.02
20.23
17.54
14.63
11.25
7.39
3.39
-0.20
-2.89
-4.44
-5.06
-5.32
-5.89
-7.25
-9.51
-12.34
-15.27
-17.89
-20.02
-21.77
-23.44
-25.35
-27.77
-30.88
-34.74
-39.19
-43.66
-47.12
-48.23
-45.73
-38.99
-28.34
-15.10
-1.18
11.52
21.70
28.88
33.24
35.27
35.47
34.07
31.25
27.26
22.57
17.92
14.16
11.96
11.67
13.21
16.09
19.68
23.35
26.63
29.26
31.13
32.17
32.32
31.49
29.61
26.75
23.09
18.93
14.69
10.70
7.22
4.32
1.91
-0.20
-2.20
-4.28
-6.52
-8.94
-11.52
-14.18
-16.84
-19.39
-21.75
-23.85
-25.77
-27.71
-30.04
-33.18
-37.40
-42.65
-48.34
-53.35
-56.31
-55.98
-51.66
-43.52
-32.52
-20.12
-7.88
2.95
11.62
17.84
21.68
23.35
23.09
21.15
17.81
13.44
8.56
3.91
0.25
-1.67
-1.51
0.64
4.19
8.33
12.25
15.48
17.85
19.42
20.27
20.36
19.58
17.81
15.10
11.72
8.07
4.48
1.12
-2.06
-5.14
-8.19
-11.09
-13.57
-15.36
-16.36
-16.75
-16.94
-17.49
-18.93
-21.59
-25.45
-30.12
-34.75
-38.25
-39.47
-37.61
-32.44
-24.45
-14.75
-4.69
4.47
11.87
17.17
20.48
22.10
22.35
21.48
19.58
16.73
13.18
9.35
5.95
3.75
3.26
4.62
7.47
11.05
14.52
17.20
18.76
19.22
18.78
17.68
16.06
13.96
11.35
8.27
4.76
0.96
-2.94
-6.77
-10.36
-13.60
-16.47
-19.01
-21.32
-23.55
-25.86
-28.40
-31.26
-34.30
-37.04
-38.78
-38.61
-35.85
-30.24
-22.09
-12.23
-1.78
8.19
16.79
23.48
28.06
30.56
31.20
30.26
28.04
24.86
21.05
17.04
13.45
10.95
10.09
11.08
13.63
17.01
20.35
22.88
24.20
24.27
23.28
21.43
18.89
15.73
12.05
8.08
4.05
0.18
-3.44
-6.90
-10.34
-13.80
-17.15
-20.14
-22.51
-24.25
-25.64
-27.26
-29.76
-33.48
-38.27
-43.30
-47.22
-48.55
-46.13
-39.59
-29.47
-17.12
-4.23
7.62
17.38
24.64
29.47
32.18
33.14
32.64
30.95
28.40
25.43
22.60
20.53
19.68
20.28
22.18
24.94
28.01
30.91
33.32
35.16
36.42
37.00
36.74
35.41
32.91
29.41
25.35
21.31
17.78
15.03
13.04
11.57
10.25
8.77
7.01
4.99
2.90
1.02
-0.49
-1.58
-2.48
-3.60
-5.36
-8.06
-11.71
-15.99
-20.36
-24.27
-27.38
-29.71
-31.61
-33.67
-36.57
-40.79
-46.41
-52.88
-58.96
-62.96
-63.13
-58.36
-48.61
-35.13
-20.00
-5.52
6.60
15.55
21.49
25.08
27.07
27.96
27.99
27.35
26.20
24.80
23.51
22.67
22.51
23.23
24.82
27.17
30.02
32.98
35.73
37.99
39.58
40.40
40.37
39.46
37.70
35.24
32.33
29.33
26.53
24.09
22.06
20.31
18.76
17.31
15.95
14.73
13.79
13.20
13.00
13.05
13.11
12.85
12.07
10.74
9.04
7.31
5.80
4.61
3.59
2.43
0.84
-1.31
-3.96
-6.79
-9.43
-11.58
-13.10
-14.18
-15.17
-16.52
-18.56
-21.34
-24.55
-27.72
-30.37
-32.28
-33.64
-34.96
-36.96
-40.25
-45.05
-51.01
-57.12
-61.84
-63.51
-60.88
-53.55
-42.29
-28.78
-15.08
-2.99
6.44
13.08
17.41
20.08
21.60
22.15
21.74
20.48
18.64
16.79
15.55
15.37
16.47
18.71
21.64
24.75
27.53
29.71
31.22
32.13
32.50
32.32
31.44
29.72
27.18
24.02
20.66
17.65
15.38
13.99
13.33
12.97
12.51
11.68
10.47
9.18
8.10
7.46
7.24
7.22
7.03
6.39
5.20
3.51
1.49
-0.67
-2.88
-5.02
-7.01
-8.80
-10.39
-11.94
-13.71
-15.93
-18.74
-21.99
-25.29
-28.22
-30.49
-32.13
-33.52
-35.27
-37.93
-41.78
-46.50
-51.19
-54.55
-55.23
-52.33
-45.82
-36.48
-25.79
-15.26
-6.04
1.34
6.86
10.82
13.44
14.84
15.07
14.24
12.69
10.90
9.39
8.59
8.72
9.72
11.42
13.54
15.83
18.20
20.53
22.79
24.83
26.38
27.18
27.07
26.05
24.30
22.08
19.60
17.03
14.55
12.33
10.60
9.50
9.02
8.93
8.97
8.93
8.77
8.58
8.42
8.26
7.88
7.02
5.56
3.59
1.40
-0.63
-2.36
-3.86
-5.38
-7.29
-9.75
-12.65
-15.63
-18.30
-20.39
-21.93
-23.20
-24.56
-26.36
-28.76
-31.87
-35.62
-39.77
-43.74
-46.63
-47.33
-44.97
-39.32
-30.95
-21.16
-11.40
-2.86
3.91
8.94
12.49
14.79
15.85
15.63
14.16
11.80
9.15
6.85
5.41
5.07
5.83
7.54
10.00
12.97
16.21
19.37
22.09
24.10
25.21
25.39
24.74
23.41
21.56
19.37
17.05
14.88
13.06
11.70
10.71
9.93
9.14
8.24
7.26
6.28
5.40
4.65
3.96
3.23
2.37
1.33
0.12
-1.21
-2.56
-3.85
-5.06
-6.29
-7.73
-9.64
-12.09
-14.97
-17.97
-20.71
-22.92
-24.56
-25.85
-27.14
-28.82
-31.13
-34.10
-37.48
-40.72
-43.07
-43.68
-41.89
-37.41
-30.54
-22.07
-13.12
-4.72
2.42
8.05
12.29
15.42
17.60
18.81
18.90
17.73
15.39
12.29
9.09
6.55
5.30
5.59
7.37
10.26
13.75
17.30
20.44
22.77
24.09
24.31
23.59
22.18
20.35
18.37
16.39
14.47
12.63
10.91
9.26
7.61
5.89
4.02
2.06
0.22
-1.29
-2.26
-2.73
-2.85
-2.87
-2.97
-3.23
-3.62
-4.13
-4.86
-5.86
-7.24
-8.92
-10.70
-12.35
-13.72
-14.91
-16.29
-18.34
-21.34
-25.33
-29.93
-34.46
-38.21
-40.50
-40.84
-38.97
-34.83
-28.66
-20.99
-12.56
-4.25
3.17
9.25
13.81
16.93
18.81
19.56
19.18
17.70
15.28
12.27
9.19
6.55
4.79
4.08
4.35
5.39
6.94
8.82
10.93
13.25
15.65
17.91
19.67
20.57
20.47
19.41
17.63
15.54
13.43
11.52
9.88
8.44
7.10
5.75
4.26
2.56
0.72
-1.11
-2.73
-3.93
-4.65
-5.04
-5.37
-6.02
-7.23
-9.03
-11.29
-13.72
-16.06
-18.15
-19.98
-21.77
-23.77
-26.30
-29.63
-33.83
-38.72
-43.76
-48.06
-50.49
-50.01
-46.02
-38.61
-28.69
-17.67
-7.08
1.89
8.70
13.39
16.43
18.30
19.31
19.50
18.74
16.99
14.42
11.48
8.78
6.86
6.04
6.30
7.39
9.03
11.04
13.37
16.04
18.91
21.64
23.72
24.67
24.26
22.61
20.16
17.49
15.02
12.91
11.03
9.13
6.99
4.59
2.05
-0.38
-2.45
-4.08
-5.27
-6.16
-6.95
-7.84
-9.00
-10.59
-12.64
-15.08
-17.74
-20.32
-22.59
-24.44
-26.01
-27.68
-29.98
-33.39
-38.13
-43.90
-49.82
-54.61
-56.89
-55.65
-50.57
-42.17
-31.55
-20.10
-9.05
0.78
8.94
15.33
19.96
22.84
24.02
23.61
21.86
19.20
16.22
13.47
11.47
10.50
10.62
11.69
13.46
15.73
18.32
21.12
23.94
26.52
28.53
29.73
30.01
29.34
27.77
25.32
22.09
18.32
14.43
10.95
8.29
6.52
5.31
4.13
2.53
0.43
-1.86
-3.89
-5.36
-6.39
-7.40
-8.89
-11.11
-13.94
-16.97
-19.76
-22.11
-24.07
-26.01
-28.35
-31.48
-35.58
-40.69
-46.59
-52.71
-58.09
-61.43
-61.47
-57.40
-49.20
-37.85
-24.94
-12.12
-0.66
8.90
16.57
22.55
26.99
29.80
30.80
29.95
27.57
24.24
20.71
17.64
15.48
14.51
14.80
16.31
18.88
22.23
25.94
29.52
32.47
34.42
35.19
34.77
33.32
31.09
28.35
25.32
22.20
19.11
16.12
13.24
10.40
7.57
4.72
1.96
-0.54
-2.52
-3.90
-4.79
-5.56
-6.76
-8.82
-11.86
-15.56
-19.30
-22.45
-24.74
-26.30
-27.73
-29.71
-32.80
-37.24
-42.88
-49.17
-55.21
-59.79
-61.57
-59.44
-52.82
-42.01
-28.22
-13.30
0.83
12.69
21.55
27.39
30.63
31.82
31.34
29.42
26.25
22.17
17.78
13.88
11.22
10.29
11.14
13.42
16.59
20.17
23.85
27.53
31.12
34.38
36.90
38.18
37.82
35.82
32.61
28.85
25.22
22.07
19.37
16.76
13.83
10.39
6.64
2.98
-0.11
-2.38
-3.93
-5.11
-6.34
-7.92
-9.93
-12.23
-14.65
-17.05
-19.37
-21.63
-23.91
