1723807879.00
64.000000
-0.00
-0.00
-0.00
-0.00
-0.00
-0.00
-0.00
-0.00
-0.00
-0.00
0.00
0.01
0.01
-0.00
-0.03
-0.05
-0.05
0.00
0.13
0.36
0.66
1.01
1.37
1.72
2.06
2.40
2.79
3.24
3.80
4.42
5.06
5.66
6.20
6.68
7.15
7.68
8.31
9.14
10.09
11.04
11.88
12.56
13.14
13.76
14.65
15.96
17.91
20.32
22.90
25.38
27.58
29.57
31.68
34.32
37.81
42.54
48.15
54.10
59.83
64.97
69.58
74.14
79.34
85.71
93.76
103.00
112.62
121.73
129.77
136.75
143.30
150.75
157.77
166.64
177.95
191.79
206.97
220.57
228.25
225.36
208.53
176.87
132.76
80.05
23.07
-34.94
-92.44
-149.16
-205.23
-260.37
-313.74
-363.87
-409.83
-450.90
-486.48
-515.71
-537.18
-549.14
-549.85
-538.22
-514.02
-478.44
-433.59
-382.11
-326.62
-269.38
-212.10
-156.06
-102.28
-51.63
-5.09
36.47
72.40
102.42
126.66
145.65
160.07
170.66
178.02
182.55
184.55
184.24
181.90
177.87
172.56
166.39
159.69
152.72
145.62
138.46
131.28
124.14
117.08
110.19
103.53
97.15
91.09
85.36
79.99
74.96
70.30
66.02
62.12
58.60
55.45
52.69
50.31
48.31
46.69
45.42
44.49
43.84
43.40
43.05
42.65
42.03
41.01
39.44
37.16
34.09
30.21
25.55
20.18
14.27
8.05
1.77
-4.31
-9.93
-14.89
-19.02
-22.20
-24.41
-25.66
-26.01
-25.58
-24.50
-22.91
-20.95
-18.74
-16.35
-13.88
-11.34
-8.79
-6.25
-3.74
-1.26
1.22
3.69
6.20
8.75
11.39
14.09
16.83
19.63
22.49
25.43
28.50
31.72
35.15
38.87
42.80
46.89
51.11
55.45
59.92
64.53
69.31
74.31
79.63
85.11
90.68
96.29
101.90
107.53
113.16
118.82
124.54
130.37
136.04
141.30
145.96
149.76
152.42
153.57
152.71
149.11
144.12
138.24
131.79
125.00
118.02
111.02
104.11
97.43
91.10
85.31
79.89
74.75
69.86
65.21
60.79
56.65
52.81
49.35
46.39
43.79
41.47
39.43
37.66
36.17
34.99
34.15
33.68
33.64
33.92
34.44
35.17
36.05
37.07
38.22
39.51
40.96
42.60
44.33
46.09
47.79
49.34
50.69
51.78
52.57
52.95
52.77
51.75
49.53
45.75
40.08
32.35
22.53
10.78
-2.62
-17.34
-33.08
-49.56
-66.57
-83.80
-100.80
-116.92
-131.42
-143.57
-152.89
-159.33
-163.20
-165.11
-165.71
-165.39
-164.10
-161.37
-156.67
-149.73
-140.92
-131.30
-122.39
-115.64
-111.99
-111.54
-113.67
-117.55
-122.74
-129.71
-139.84
-154.97
-176.53
-204.62
-237.74
-273.23
-308.04
-339.90
-368.01
-393.13
-417.09
-442.25
-470.87
-504.38
-542.43
-581.87
-616.50
-638.12
-638.83
-613.89
-563.80
-494.12
-413.39
-329.88
-248.90
-171.94
-97.74
-24.56
47.53
115.75
175.16
220.35
247.46
255.59
247.03
226.58
200.06
172.45
147.00
125.09
106.87
92.11
80.81
73.19
69.08
67.54
66.85
65.11
61.18
55.21
48.86
44.69
44.97
50.62
60.69
72.67
83.67
91.57
95.86
97.49
98.06
98.92
100.49
102.28
103.34
102.95
101.07
98.24
95.38
93.24
92.05
91.60
91.39
91.05
90.51
90.07
90.09
90.73
91.76
92.58
92.55
91.29
88.84
85.68
82.50
79.85
77.95
76.38
74.07
69.38
60.45
45.90
25.44
0.38
-26.49
-51.58
-71.61
-84.63
-90.44
-90.45
-86.86
-81.78
-76.63
-72.08
-68.29
-65.31
-63.31
-62.55
-63.16
-64.90
-67.08
-68.77
-69.22
-68.22
-66.33
-64.56
-63.86
-64.75
-67.09
-70.43
-74.36
-78.91
-84.38
-91.27
-99.96
-110.84
-124.65
-142.44
-164.99
-191.68
-219.71
-244.24
-259.94
-262.96
-252.60
-231.37
-203.68
-173.72
-143.88
-114.48
-84.51
-52.96
-19.71
14.37
47.92
79.53
107.88
131.88
150.62
163.58
171.05
174.28
175.37
176.80
180.98
189.37
201.68
215.44
226.09
228.19
217.81
194.77
163.71
132.83
110.42
101.14
104.08
113.96
124.54
132.01
135.97
137.67
136.97
130.68
113.83
83.04
39.78
-9.00
-53.64
-86.14
-103.52
-108.60
-107.59
-106.59
-109.03
-115.13
-123.10
-130.83
-136.99
-140.97
-142.46
-140.98
-135.80
-126.39
-112.86
-96.06
-77.46
-58.72
-41.23
-25.95
-13.29
-3.24
4.58
10.88
16.74
23.39
31.82
42.22
53.67
64.44
72.64
77.01
77.52
75.25
71.77
68.38
65.59
63.09
60.23
56.57
52.18
47.54
43.14
39.23
35.62
31.82
27.23
21.43
14.24
5.85
-3.07
-11.60
-18.68
-23.31
-24.83
-22.97
-17.76
-9.47
1.46
14.39
28.38
42.15
54.31
63.59
69.33
71.67
71.48
70.04
68.50
67.52
67.16
67.07
66.86
66.39
65.83
65.53
65.74
66.40
67.07
67.20
66.22
63.93
60.49
56.38
52.16
48.27
44.79
41.55
38.17
34.20
29.26
23.11
15.74
7.47
-0.87
-7.93
-12.08
-11.94
-7.09
1.46
11.36
19.69
24.08
23.63
19.19
12.85
6.74
2.20
-0.68
-2.79
-5.17
-8.36
-12.11
-15.49
-17.40
-16.97
-13.81
-8.00
-0.10
9.10
18.66
27.71
35.69
42.32
47.60
51.62
54.31
55.48
54.86
52.37
48.31
43.35
38.25
33.49
29.11
24.62
19.34
12.77
4.84
-4.04
-13.14
-21.63
-28.75
-33.94
-36.81
-37.08
-34.63
-29.38
-21.39
-10.74
2.31
17.33
33.67
50.47
66.71
81.39
93.66
102.92
108.95
111.99
112.69
112.00
110.96
110.33
110.25
110.18
109.07
105.76
99.47
90.05
78.00
64.16
49.40
34.38
19.55
5.28
-8.01
-19.91
-30.14
-38.71
-45.89
-52.16
-57.89
-63.17
-67.86
-71.72
-74.69
-77.03
-79.18
-81.47
-83.84
-85.63
-85.82
-83.45
-78.00
-69.65
-59.12
-47.37
-35.21
-23.16
-11.52
-0.45
9.76
18.79
26.32
32.25
36.74
40.09
42.63
44.54
45.68
45.75
44.41
41.42
36.79
30.73
23.55
15.65
7.40
-0.77
-8.27
-14.43
-18.63
-20.51
-20.17
-18.24
-15.57
-13.00
-11.10
-10.05
-9.75
-10.03
-10.81
-12.15
-14.31
-17.52
-21.95
-27.50
-33.74
-39.90
-44.92
-47.73
-47.53
-44.03
-37.53
-28.75
-18.67
-8.19
1.94
11.21
19.28
25.94
31.10
34.79
37.16
38.43
38.84
38.68
38.20
37.64
37.20
36.99
36.99
37.09
37.11
36.87
36.26
35.22
33.71
31.74
29.38
26.68
23.73
20.59
17.21
13.55
9.55
5.23
0.66
-3.98
-8.55
-12.89
-16.95
-20.83
-24.73
-29.05
-34.16
-40.28
-47.20
-54.17
-59.96
-63.18
-62.66
-57.96
-49.45
-38.25
-25.78
-13.44
-2.23
7.28
14.94
20.81
25.06
27.90
29.59
30.41
30.65
30.51
30.20
29.81
29.41
29.07
28.87
28.91
29.22
29.76
30.38
30.80
30.71
29.90
28.27
25.96
23.19
20.17
17.03
13.76
10.26
6.46
2.40
-1.80
-5.96
-9.96
-13.75
-17.34
-20.83
-24.30
-27.98
-32.10
-36.92
-42.51
-48.58
-54.32
-58.53
-59.93
-57.56
-51.22
-41.55
-29.83
-17.63
-6.32
3.21
10.62
16.04
19.78
22.20
23.62
24.24
24.28
23.99
23.68
23.56
23.74
24.17
24.69
25.13
25.47
25.75
26.15
26.69
27.21
27.32
26.60
24.84
22.18
19.07
16.08
13.67
12.01
10.95
10.18
9.36
8.29
6.93
5.41
3.98
3.01
2.89
3.86
5.76
7.86
9.07
8.30
4.95
-0.69
-7.52
-13.98
-18.63
-20.66
-20.04
-17.37
-13.50
-9.11
-4.61
-0.13
4.25
8.32
11.69
13.82
14.32
13.06
10.31
6.67
2.87
-0.50
-3.09
-4.81
-5.76
-6.03
-5.78
-5.18
-4.52
-4.27
-4.92
-6.82
-10.03
-14.25
-18.94
-23.56
-27.80
-31.69
-35.51
-39.46
-43.46
-47.01
-49.44
-50.22
-49.33
-47.36
-45.33
-44.36
-45.14
-47.75
-51.52
-55.26
-57.54
-57.20
-53.56
-46.63
-37.08
-25.98
-14.54
-3.80
5.51
13.01
18.65
22.51
24.81
25.86
26.01
25.64
25.09
24.60
24.33
24.38
24.73
25.35
26.13
26.93
27.64
28.20
28.51
28.48
27.99
26.89
25.08
22.56
19.53
16.23
12.90
9.64
6.39
3.01
-0.63
-4.47
-8.33
-11.94
-15.11
-17.87
-20.45
-23.22
-26.61
-30.94
-36.29
-42.45
-48.86
-54.60
-58.51
-59.46
-56.68
-50.08
-40.34
-28.77
-16.91
-6.05
2.99
9.96
14.95
18.19
19.89
20.34
19.88
18.97
18.12
17.65
17.64
17.98
18.49
19.07
19.73
20.46
21.16
21.64
21.65
21.03
19.81
18.16
16.32
14.42
12.47
10.38
8.01
5.27
2.14
-1.36
-5.14
-9.06
-12.98
-16.71
-20.15
-23.32
-26.44
-29.82
-33.84
-38.71
-44.27
-49.92
-54.62
-57.12
-56.32
-51.71
-43.52
-32.71
-20.73
-9.05
1.16
9.31
15.33
19.52
22.30
24.07
25.08
25.51
25.46
25.07
24.48
23.83
23.31
23.05
23.16
23.63
24.37
25.06
25.32
24.80
23.27
20.82
17.77
14.58
11.61
8.99
6.60
4.16
1.39
-1.84
-5.47
-9.34
-13.24
-16.99
-20.54
-23.91
-27.23
-30.75
-34.73
-39.41
-44.85
-50.72
-56.28
-60.40
-61.79
-59.42
-52.88
-42.62
-29.92
-16.50
-4.06
6.23
13.98
19.43
23.13
25.63
27.19
27.89
27.75
26.92
25.77
24.75
24.24
24.40
25.15
26.23
27.36
28.31
28.90
29.06
28.79
28.08
26.94
25.35
23.23
20.48
17.07
13.09
8.78
4.48
0.48
-3.05
-6.21
-9.26
-12.47
-16.05
-20.11
-24.67
-29.66
-34.88
-39.83
-43.73
-45.60
-44.54
-40.11
-32.55
-22.83
-12.31
-2.36
6.14
12.83
17.87
21.61
24.31
26.05
26.74
26.37
25.11
23.43
21.90
21.06
21.24
22.35
24.11
26.03
27.66
28.71
29.09
28.87
28.18
27.17
25.90
24.38
22.63
20.71
18.74
16.83
15.10
13.53
12.04
10.53
8.97
7.38
5.85
4.42
2.96
1.21
-1.06
-3.83
-6.55
-8.10
-7.02
-1.98
7.70
21.73
38.88
57.31
75.18
91.14
104.60
115.81
125.51
134.65
144.12
154.53
165.98
177.90
189.13
198.11
203.47
204.50
201.55
195.96
189.68
184.60
181.98
182.00
183.72
185.31
184.48
178.99
167.23
148.54
123.34
92.90
58.95
23.21
-12.85
-47.96
-80.90
-110.38
-135.18
-154.62
-169.13
-180.38
-190.78
-202.41
-216.00
-230.32
-242.61
-249.67
-249.17
-240.51
-224.89
-204.58
-182.05
-159.18
-137.17
-116.65
-98.06
-81.83
-68.29
-57.45
-48.84
-41.59
-34.57
-26.83
-17.97
-8.33
1.08
8.99
14.41
16.95
16.99
15.40
13.16
10.95
9.07
7.37
5.51
3.12
0.01
-3.82
-8.10
-12.45
-16.53
-20.19
-23.55
-26.90
-30.59
-34.96
-40.17
-46.16
-52.56
-58.70
-63.51
-65.76
-64.36
-58.77
-49.33
-37.24
-24.20
-11.91
-1.55
6.30
11.67
14.86
16.20
15.96
14.37
11.70
8.28
4.51
0.75
-2.78
-5.94
-8.71
-11.11
-13.19
-14.98
-16.65
-18.47
-20.89
-24.30
-28.90
-34.48
-40.35
-45.55
-49.13
-50.50
-49.61
-46.86
-42.99
-38.80
-34.99
-32.08
-30.30
-29.55
-29.26
-28.50
-26.20
-21.58
-14.49
-5.57
3.98
12.72
19.52
23.91
26.07
26.72
26.71
26.69
26.91
27.18
26.97
25.77
23.27
19.61
15.36
11.32
8.23
6.46
5.84
5.76
5.47
4.39
2.34
-0.46
-3.57
-6.53
-9.11
-11.35
-13.46
-15.76
-18.57
-22.18
-26.83
-32.62
-39.33
-46.26
-52.17
-55.53
-55.00
-49.99
-40.99
-29.53
-17.71
-7.39
0.35
5.44
8.58
10.74
12.58
14.32
15.76
16.67
17.00
16.95
16.81
16.76
16.74
16.55
16.04
15.25
14.41
13.75
13.36
12.98
12.14
10.37
7.42
3.45
-1.06
-5.48
-9.34
-12.54
-15.38
-18.47
-22.51
-27.90
-34.59
-41.86
-48.47
-53.02
-54.30
-51.66
-45.16
-35.56
-24.11
-12.27
-1.38
7.57
14.18
18.61
21.42
23.35
24.98
26.52
27.82
28.55
28.39
27.23
25.26
22.83
20.33
18.11
16.43
15.38
14.97
15.00
15.07
14.64
13.13
10.19
5.80
0.35
-5.49
-11.02
-15.89
-20.17
-24.42
-29.35
-35.45
-42.71
-50.44
-57.39
-62.11
-63.34
-60.43
-53.56
-43.69
-32.27
-20.85
-10.66
-2.41
3.69
7.88
10.60
12.34
13.46
14.17
14.57
14.68
14.56
14.33
14.20
14.44
15.25
16.70
18.60
20.57
22.07
22.63
21.98
20.17
17.53
14.55
11.64
8.94
6.35
3.61
0.57
-2.70
-5.94
-8.92
-11.61
-14.29
-17.49
-21.74
-27.36
-34.23
-41.77
-49.01
-54.76
-57.82
-57.35
-53.00
-45.08
-34.52
-22.61
-10.63
0.37
9.85
17.63
23.87
28.86
33.02
36.70
40.22
43.71
47.09
50.17
52.64
54.38
55.50
56.30
57.19
58.47
60.23
62.35
64.61
66.86
69.09
71.36
73.68
75.92
77.77
78.88
79.07
78.48
77.70
77.63
79.14
82.70
88.13
94.69
101.43
107.59
112.96
117.90
123.02
128.94
135.92
143.77
151.93
159.47
165.01
166.79
163.17
153.48
138.87
122.69
109.86
105.29
112.12
130.41
157.07
186.96
214.56
235.51
247.41
249.70
243.16
229.22
209.58
186.08
160.58
134.85
110.38
88.11
68.40
50.92
34.83
19.13
3.03
-13.87
-31.48
-49.52
-67.86
-86.90
-107.43
-130.10
-154.71
-179.75
-202.63
-220.51
-231.38
-234.84
-232.16
-225.66
-217.76
-210.29
-204.39
-200.80
-200.08
-202.62
-208.10
-215.08
-221.02
-222.99
-218.71
-207.49
-190.49
-170.18
-149.26
-129.67
-112.05
-96.00
-80.77
-65.98
-51.94
-39.46
-29.27
-21.55
-15.72
-10.78
-5.84
-0.52
4.96
10.04
14.36
17.98
21.35
25.01
29.13
33.40
37.20
39.87
41.12
40.98
39.67
37.33
33.90
29.19
23.10
15.83
7.89
0.01
-7.19
-13.39
-18.69
-23.47
-28.24
-33.41
-39.29
-45.97
-53.33
-60.93
-67.89
-72.96
-74.75
-72.22
-65.19
-54.53
-41.99
-29.59
-18.92
-10.63
-4.44
0.41
4.59
8.26
11.10
12.62
12.60
11.28
9.29
7.31
5.74
4.63
3.76
2.95
2.26
1.93
2.21
3.14
4.40
5.47
5.83
5.22
3.71
1.62
-0.65
-2.80
-4.72
-6.52
-8.40
-10.54
-13.09
-16.11
-19.63
-23.62
-28.02
-32.59
-36.90
-40.29
-41.97
-41.23
-37.66
-31.30
-22.67
-12.64
-2.18
7.81
16.64
23.89
29.32
32.76
34.13
33.43
30.78
26.52
21.22
15.66
10.72
7.20
5.52
5.60
6.85
8.28
8.88
7.95
5.28
1.22
-3.57
-8.47
-13.14
-17.64
-22.29
-27.42
-33.06
-38.94
-44.58
-49.51
-53.59
-57.07
-60.38
-63.84
-67.25
-69.70
-69.84
-66.31
-58.38
-46.41
-31.83
-16.78
-3.37
7.00
13.98
18.29
21.25
24.20
27.88
32.21
36.29
38.90
39.15
37.03
33.62
30.87
30.70
34.09
40.40
47.32
51.65
50.73
43.88
33.18
23.14
19.16
25.34
42.39
66.60
90.36
104.14
99.36
71.33
21.15
-44.14
-113.25
-173.74
-215.35
-232.50
-225.69
-200.93
-167.92
-136.85
-115.19
-105.13
-102.76
-100.08
-89.01
-66.07
-34.80
-4.54
14.40
16.37
3.58
-15.14
-29.42
-33.32
-28.31
-21.63
-21.32
-30.97
-47.67
-63.95
-72.52
-70.70
-61.86
-53.03
-50.74
-57.36
-70.22
-83.47
-91.75
-93.13
-90.17
-88.06
-91.46
-101.94
-117.17
-132.48
-143.69
-149.27
-150.74
-151.07
-152.32
-153.86
-152.58
-144.57
-127.50
-102.13
-72.03
-41.96
-15.64
5.72
23.41
39.78
56.47
73.21
87.91
97.86
101.41
98.88
92.56
85.56
80.29
77.53
76.36
75.14
72.64
68.73
64.18
59.92
56.21
52.41
47.32
39.94
30.00
18.06
5.01
-8.30
-21.38
-34.05
-45.93
-56.07
-63.05
-65.22
-61.24
-50.57
-33.70
-12.22
11.42
34.30
53.77
68.08
76.96
81.51
83.74
85.57
88.02
90.94
93.31
94.07
92.78
89.89
86.45
83.55
81.87
81.43
81.74
82.09
81.74
80.14
77.13
72.84
67.69
62.19
56.72
51.42
46.00
39.92
32.51
23.28
12.22
-0.01
-11.94
-21.49
-26.31
-24.42
-14.99
1.28
22.10
44.11
63.83
78.52
86.92
89.28
87.00
82.02
76.08
70.40
65.74
62.56
61.33
62.53
66.33
72.19
78.61
83.28
83.72
78.16
66.16
48.83
28.27
6.74
-13.95
-32.74
-49.01
-62.35
-72.19
-78.05
-79.86
-78.30
-74.94
-71.80
-70.81
-73.12
-78.55
-85.58
-91.69
-94.18
-91.06
-81.67
-66.88
-48.73
-29.66
-11.78
3.64
16.20
26.17
34.01
40.17
44.88
48.25
50.33
51.26
51.33
51.00
50.84
51.37
52.85
55.15
57.68
59.57
59.89
57.97
53.65
47.34
39.85
32.05
24.55
17.48
10.62
3.59
-3.81
-11.47
-19.04
-26.03
-32.04
-36.68
-39.48
-39.81
-37.02
-30.73
-21.19
-9.36
3.41
15.96
27.81
39.14
50.32
61.24
70.90
77.69
80.16
77.88
71.75
63.70
55.90
49.94
46.42
45.06
45.00
45.13
44.31
41.44
35.66
26.59
14.63
0.91
-12.93
-25.33
-35.23
-42.29
-46.76
-49.29
-50.75
-52.10
-54.40
-58.56
-65.01
-73.26
-81.74
-88.04
-89.62
-84.74
-73.20
-56.53
-37.44
-18.82
-2.72
10.16
20.43
29.27
37.68
45.93
53.52
59.62
63.59
65.42
65.75
65.58
65.70
66.46
67.67
68.80
69.39
69.18
68.05
65.84
62.17
56.52
48.40
37.70
24.81
10.65
-3.57
-16.67
-27.71
-36.15
-41.86
-45.14
-46.63
-47.27
-48.09
-50.05
-53.81
-59.54
-66.79
-74.45
-80.91
-84.34
-83.20
-76.72
-65.28
-50.26
-33.71
-17.63
-3.40
8.45
18.14
26.21
33.13
39.08
43.93
47.45
49.48
50.03
49.28
47.47
44.86
41.78
38.65
36.06
34.60
34.78
36.72
40.06
43.98
47.29
48.89
48.02
44.46
38.65
31.51
24.14
17.49
12.12
8.06
4.91
2.08
-0.88
-4.22
-7.86
-11.69
-15.70
-20.15
-25.55
-32.33
-40.71
-50.35
-60.32
-69.16
-75.27
-77.35
-74.75
-67.76
-57.43
-45.27
-32.76
-20.88
-10.08
-0.36
8.35
16.06
22.56
27.67
31.36
33.87
35.66
37.09
38.32
39.28
39.79
39.84
39.80
40.26
41.73
44.30
47.39
49.96
50.90
49.58
46.02
40.95
35.41
30.37
26.61
24.66
24.83
26.97
30.15
32.52
31.84
26.40
16.08
2.64
-10.94
-21.90
-29.19
-33.87
-38.49
-45.47
-55.61
-67.49
-78.18
-84.65
-85.05
-79.42
-69.18
-56.38
-42.77
-29.44
-16.87
-5.23
5.15
13.70
19.76
22.90
23.21
21.42
18.71
16.35
15.28
15.84
17.73
20.21
22.49
24.00
24.65
24.64
24.29
23.73
22.94
21.69
19.82
17.34
14.43
11.30
8.14
4.98
1.81
-1.38
-4.53
-7.55
-10.39
-13.09
-15.71
-18.34
-21.07
-24.00
-27.33
-31.25
-35.76
-40.46
-44.43
-46.43
-45.24
-40.23
-31.64
-20.57
-8.57
2.83
12.55
20.11
25.49
28.89
30.62
30.95
30.19
28.74
27.03
25.48
24.36
23.74
23.44
23.12
22.35
20.86
18.65
16.03
13.48
11.46
10.14
9.32
8.52
7.19
4.99
1.86
-2.06
-6.53
-11.48
-16.95
-23.08
-29.95
-37.54
-45.72
-54.31
-63.03
-71.43
-78.84
-84.32
-86.78
-85.34
-79.54
-69.61
-56.46
-41.45
-25.98
-11.20
2.24
14.14
24.54
33.46
40.78
46.23
49.59
50.87
50.34
48.43
45.58
42.09
38.18
34.04
30.01
26.51
23.97
22.61
22.37
22.91
23.73
24.45
24.80
24.71
24.22
23.36
22.17
20.74
19.19
17.66
16.25
14.86
13.19
10.72
6.88
1.23
-6.26
-15.20
-24.68
-33.51
-40.42
-44.40
-44.95
-42.06
-36.26
-28.31
-19.01
-8.98
1.30
11.48
21.13
29.71
36.56
41.14
43.15
42.78
40.61
37.48
34.11
30.89
27.71
24.19
19.89
14.60
8.55
2.26
-3.73
-9.09
-13.89
-18.41
-22.96
-27.66
-32.31
-36.55
-40.07
-42.74
-44.68
-46.20
-47.46
-48.50
-49.24
-49.62
-49.77
-49.93
-50.24
-50.44
-49.74
-46.98
-41.10
-31.63
-19.00
-4.50
10.22
23.68
35.09
44.38
52.00
58.52
64.27
69.33
73.57
76.92
79.39
80.97
81.63
81.15
79.26
75.87
71.20
65.88
60.74
56.55
53.72
52.22
51.62
51.39
51.19
51.12
51.68
53.63
57.51
63.32
70.29
77.00
81.75
83.06
79.98
72.28
60.38
45.15
27.75
9.46
-8.44
-24.79
-38.74
-49.99
-58.80
-65.91
-72.14
-78.01
-83.57
-88.32
-91.57
-92.72
-91.61
-88.58
-84.40
-79.91
-75.88
-72.72
-70.46
-68.82
-67.36
-65.60
-63.16
-59.87
-55.69
-50.78
-45.44
-39.98
-34.62
-29.44
-24.38
-19.29
-14.20
-9.32
-5.06
-1.86
0.04
0.63
0.10
-1.33
-3.56
-6.39
-9.33
-11.50
-11.91
-9.99
-6.22
-2.15
0.20
-0.81
-5.58
-13.18
-21.74
-29.35
-34.70
-37.32
-37.32
-35.02
-30.73
-24.74
-17.57
-9.98
-2.91
2.87
6.97
9.50
10.92
11.86
12.85
14.10
15.49
16.62
16.92
15.94
13.56
10.07
5.99
1.98
-1.45
-3.95
-5.40
-5.76
-5.13
-3.76
-2.08
-0.61
0.10
-0.35
-2.12
-5.09
-8.90
-12.97
-16.61
-19.01
-19.42
-17.34
-12.62
-5.59
2.98
12.04
20.51
27.40
31.96
33.69
32.36
28.11
21.45
13.36
5.03
-2.26
-7.53
-10.23
-10.48
-8.91
-6.44
-3.99
-2.14
-1.06
-0.52
-0.23
0.02
0.12
-0.23
-1.31
-3.12
-5.31
-7.24
-8.35
-8.40
-7.62
-6.62
-6.01
-6.22
-7.32
-9.18
-11.53
-14.15
-16.76
-18.94
-20.02
-19.16
-15.62
-9.08
0.15
11.11
22.43
32.74
41.02
46.92
50.71
52.99
54.36
55.11
55.13
54.04
51.52
47.59
42.69
37.44
32.46
28.06
24.24
20.83
17.67
14.68
11.83
9.05
6.16
2.92
-0.76
-4.74
-8.71
-12.23
-15.08
-17.28
-19.07
-20.80
-22.62
-24.47
-26.06
-27.07
-27.34
-27.02
-26.59
-26.70
-27.87
-30.21
-33.30
-36.17
-37.60
-36.52
-32.31
-24.98
-15.10
-3.55
8.73
21.01
32.96
44.58
56.01
67.25
77.74
86.30
91.33
91.39
85.81
75.18
61.27
46.45
32.94
22.03
13.93
7.95
3.02
-1.73
-6.72
-11.95
-17.16
-22.10
-26.53
-30.30
-33.22
-35.02
-35.43
-34.40
-32.16
-29.32
-26.74
-25.18
-25.08
-26.37
-28.45
-30.53
-31.91
-32.29
-31.81
-30.97
-30.37
-30.52
-31.72
-33.98
-36.96
-39.99
-42.14
-42.34
-39.79
-34.18
-25.86
-15.83
-5.29
4.67
13.44
20.93
27.38
33.08
38.21
42.68
46.35
49.09
50.92
51.92
52.14
51.55
50.08
47.65
44.36
40.52
36.55
32.91
29.86
27.40
25.37
23.49
21.52
19.34
16.89
14.20
11.31
8.35
5.48
2.84
0.53
-1.47
-3.22
-4.82
-6.27
-7.49
-8.34
-8.73
-8.73
-8.58
-8.72
-9.55
-11.37
-14.18
-17.50
-20.45
-21.95
-20.99
-17.02
-10.20
-1.31
8.41
17.69
25.53
31.35
35.04
36.79
37.01
36.12
34.59
32.83
31.18
29.91
29.14
28.89
28.98
29.06
28.61
27.11
24.18
19.89
14.67
9.27
4.42
0.57
-2.27
-4.38
-6.16
-7.88
-9.55
-11.01
-12.15
-13.05
-14.02
-15.46
-17.73
-21.05
-25.46
-30.96
-37.50
-44.96
-53.01
-61.02
-68.06
-73.11
-75.31
-74.25
-70.06
-63.33
-54.90
-45.61
-36.12
-26.88
-18.14
-10.09
-2.93
3.09
7.63
10.31
10.81
9.02
5.19
-0.08
-5.89
-11.25
-15.37
-17.80
-18.53
-17.89
-16.36
-14.38
-12.26
-10.08
-7.80
-5.38
-2.84
-0.31
1.99
3.84
5.06
5.56
5.40
4.77
3.92
3.07
2.33
1.55
0.30
-2.01
-5.97
-11.93
-19.68
-28.46
-37.01
-43.90
-47.93
-48.47
-45.61
-40.05
-32.93
-25.37
-18.24
-12.06
-7.01
-3.03
-0.01
2.28
4.07
5.67
7.34
9.26
11.43
13.70
15.86
17.77
19.51
21.34
23.66
26.79
30.75
35.09
39.00
41.46
41.73
39.63
35.70
31.04
26.84
23.97
22.73
23.00
24.48
27.03
30.81
36.03
42.73
50.51
58.60
66.05
71.93
75.44
76.03
73.34
67.27
58.04
46.10
32.07
16.55
0.11
-16.67
-33.03
-48.01
-60.65
-70.26
-76.73
-80.55
-82.62
-83.81
-84.59
-84.88
-84.16
-81.79
-77.28
-70.56
-61.94
-51.99
-41.32
-30.32
-19.18
-7.96
3.25
14.11
24.06
32.60
39.49
44.94
49.61
54.25
59.44
65.32
71.61
77.81
83.49
88.36
92.37
95.61
98.24
100.57
103.05
106.30
110.83
116.50
122.19
125.66
124.11
115.09
97.45
71.86
40.57
6.59
-27.26
-58.89
-87.06
-110.99
-130.04
-143.66
-151.71
-154.72
-153.92
-150.83
-146.67
-141.91
-136.28
-129.11
-119.90
-108.65
-95.94
-82.61
-69.58
-57.53
-46.93
-38.03
-30.96
-25.67
-21.94
-19.42
-17.68
-16.43
-15.55
-15.20
-15.71
-17.43
-20.52
-24.91
-30.28
-36.27
-42.72
-49.63
-57.23
-65.59
-74.35
-82.55
-88.73
-91.36
-89.31
-82.28
-70.96
-56.76
-41.45
-26.69
-13.70
-3.03
5.27
11.47
15.76
18.23
18.94
18.08
16.26
14.40
13.49
14.17
16.38
19.39
22.15
23.78
23.92
22.80
20.87
18.56
16.01
13.18
10.09
7.02
4.47
2.92
2.60
3.29
4.30
4.76
3.91
1.33
-2.97
-8.59
-14.89
-21.09
-26.36
-29.86
-30.79
-28.57
-23.04
-14.65
-4.52
5.79
14.75
21.35
25.36
27.29
28.03
28.34
28.66
29.03
29.31
29.38
29.30
29.16
29.08
29.04
28.97
28.87
28.80
28.91
29.30
29.88
30.45
30.67
30.24
28.92
26.68
23.61
20.03
16.43
13.33
11.09
9.74
8.85
7.68
5.37
1.31
-4.53
-11.48
-18.37
-23.77
-26.37
-25.43
-20.96
-13.75
-5.14
3.36
10.43
15.24
17.60
17.78
16.38
14.05
11.38
8.79
6.55
4.84
3.78
3.46
3.89
5.01
6.67
8.67
10.78
12.78
14.42
15.48
15.71
14.85
12.72
9.34
4.91
-0.15
-5.41
-10.55
-15.51
-20.46
-25.70
-31.44
-37.71
-44.14
-50.04
-54.43
-56.30
-54.83
-49.76
-41.41
-30.77
-19.14
-7.78
2.40
10.96
17.92
23.48
27.86
31.23
33.74
35.65
37.31
39.09
41.20
43.55
45.80
47.54
48.59
49.08
49.53
50.50
52.33
54.84
57.32
58.79
58.40
55.87
51.66
46.87
42.75
40.27
39.70
40.47
41.52
41.71
40.29
37.26
33.47
30.41
30.15
34.67
45.28
61.89
82.51
103.43
120.03
128.10
125.22
111.56
89.65
63.32
36.37
11.40
-10.44
-29.04
-44.59
-57.02
-65.90
-70.89
-72.20
-70.73
-67.88
-64.81
-62.01
-59.13
-55.39
-50.22
-43.76
-36.88
-30.60
-25.63
-21.79
-18.00
-12.84
-5.17
5.35
18.11
31.84
45.13
56.83
66.43
74.09
80.77
87.97
97.38
110.14
126.13
143.57
159.31
170.00
173.49
169.92
161.68
152.45
145.55
142.88
144.62
149.83
157.34
166.12
175.00
182.06
184.41
178.65
161.99
133.35
93.91
46.93
-3.25
-52.20
-96.36
-133.42
-162.49
-183.87
-198.70
-208.59
-215.15
-219.64
-222.79
-224.86
-225.77
-225.49
-224.10
-221.85
-219.08
-215.99
-212.55
-208.49
-203.19
-195.91
-185.98
-173.09
-157.36
-139.47
-120.39
-101.22
-82.91
-66.20
-51.46
-38.86
-28.38
-19.91
-13.29
-8.27
-4.46
-1.41
1.31
4.01
6.70
9.24
11.40
13.05
14.30
15.42
16.76
18.45
20.32
21.88
22.50
21.63
19.06
15.09
10.35
5.56
1.28
-2.38
-5.73
-9.35
-13.84
-19.54
-26.25
-33.25
-39.29
-42.93
-42.90
-38.59
-30.40
-19.79
-8.85
0.28
6.10
8.26
7.45
5.02
2.28
0.06
-1.49
-2.72
-4.08
-5.73
-7.46
-8.78
-9.21
-8.54
-6.91
-4.66
-2.09
0.66
3.67
7.07
10.75
14.35
17.29
19.01
19.21
17.95
15.67
13.03
10.74
9.18
8.44
8.14
7.53
5.85
2.51
-2.64
-9.30
-16.85
-24.34
-30.54
-34.11
-33.80
-28.97
-20.06
-8.67
2.79
11.95
17.33
18.86
17.58
15.01
12.32
9.92
7.63
5.21
2.78
0.92
0.30
1.28
3.66
6.84
9.98
12.49
14.19
15.22
15.90
16.42
16.79
16.89
16.49
15.45
13.72
11.35
8.42
5.01
1.25
-2.72
-6.75
-10.66
-14.39
-17.96
-21.57
-25.52
-30.14
-35.62
-41.83
-48.20
-53.75
-57.32
-57.86
-54.80
-48.26
-39.04
-28.34
-17.44
-7.35
1.37
8.54
14.23
18.63
21.92
24.30
26.00
27.22
28.11
28.73
29.00
28.81
28.14
27.05
25.74
24.43
23.30
22.39
21.56
20.57
19.17
17.12
14.34
10.90
7.02
3.00
-0.89
-4.52
-7.95
-11.38
-14.96
-18.67
-22.24
-25.25
-27.40
-28.67
-29.37
-30.13
-31.52
-33.94
-37.50
-41.91
-46.60
-50.71
-53.24
-53.21
-49.97
-43.43
-34.20
-23.47
-12.65
-2.92
5.01
11.07
15.63
19.21
22.33
25.31
28.22
30.97
33.32
35.12
36.33
37.11
37.74
38.51
39.50
40.63
41.64
42.24
42.25
41.63
40.36
38.38
35.51
31.62
26.80
21.44
16.22
11.85
8.74
6.84
5.65
4.49
2.80
0.42
-2.43
-5.21
-7.54
-9.28
-10.76
-12.62
-15.54
-19.99
-25.97
-32.84
-39.46
-44.37
-46.30
-44.49
-39.04
-30.77
-21.03
-11.13
-2.00
5.96
12.78
18.69
23.83
28.22
31.83
34.60
36.52
37.64
38.04
37.89
37.48
37.14
37.07
37.20
37.08
36.18
34.22
31.46
28.69
26.79
26.24
26.76
27.46
27.27
25.60
22.55
18.84
15.29
12.38
10.06
7.83
5.15
1.79
-2.12
-6.17
-9.93
-13.15
-15.82
-18.18
-20.59
-23.42
-26.96
-31.27
-36.14
-41.01
-44.99
-47.09
-46.44
-42.63
-35.86
-26.87
-16.75
-6.69
2.42
10.03
16.03
20.59
24.03
26.68
28.80
30.59
32.26
33.99
35.93
38.16
40.66
43.29
45.92
48.54
51.30
54.41
58.05
62.16
66.49
70.69
74.54
78.13
81.81
85.97
90.89
96.51
102.51
108.50
114.30
120.05
126.24
133.45
142.17
152.58
164.44
177.25
190.39
203.33
215.82
227.95
240.14
253.08
267.57
284.10
302.33
320.65
336.05
344.74
343.27
329.73
304.53
270.29
230.89
190.05
150.35
112.86
77.59
44.14
12.33
-17.75
-45.99
-72.59
-98.09
-123.20
-148.44
-173.99
-199.70
-225.28
-250.43
-274.78
-297.68
-318.07
-334.56
-345.69
-350.37
-348.19
-339.54
-325.45
-307.31
-286.60
-264.67
-242.68
-221.53
-201.87
-183.98
-167.95
-153.68
-141.09
-130.18
-120.99
-113.48
-107.43
-102.53
-98.50
-95.15
-92.54
-90.83
-90.17
-90.51
-91.51
-92.46
-92.41
-90.34
-85.38
-77.13
-65.78
-52.26
-37.90
-24.12
-11.99
-1.93
6.21
12.87
18.46
23.18
27.04
30.09
32.54
34.78
37.16
39.80
42.39
44.37
45.13
44.32
41.94
38.12
32.90
26.06
17.34
6.78
-5.09
-17.22
-28.39
-37.66
-44.69
-49.62
-52.80
-54.56
-55.11
-54.66
-53.56
-52.38
-51.58
-51.37
-51.62
-52.06
-52.59
-53.43
-55.08
-57.98
-62.14
-66.92
-71.16
-73.38
-72.25
-67.03
-57.72
-45.15
-30.76
-16.30
-3.33
7.09
14.66
19.69
22.90
25.09
26.85
28.53
30.27
32.11
34.09
36.22
38.48
40.72
42.78
44.51
45.98
47.42
49.14
51.37
54.08
56.92
59.38
61.07
61.87
62.09
62.26
62.83
63.99
65.59
67.31
68.91
70.46
72.38
75.22
79.45
85.16
92.12
99.79
107.60
115.02
121.68
127.45
132.48
137.40
143.44
152.31
165.62
183.92
205.81
227.63
244.19
250.23
242.34
219.97
185.49
143.16
97.75
53.25
12.55
-22.35
-49.94
-68.81
-77.77
-76.25
-64.88
-45.85
-22.59
0.86
20.70
34.02
39.03
34.78
20.98
-1.86
-31.98
-65.92
-98.95
-126.38
-145.40
-156.24
-162.04
-167.13
-174.78
-185.85
-198.70
-210.61
-219.38
-224.01
-224.34
-220.40
-211.81
-197.99
-178.99
-156.00
-131.30
-107.57
-86.96
-70.52
-58.20
-49.26
-42.73
-37.85
-34.19
-31.69
-30.76
-32.08
-36.39
-44.02
-54.63
-67.11
-79.91
-91.48
-100.61
-106.57
-109.01
-107.99
-104.05
-98.25
-92.15
-87.34
-84.77
-84.32
-84.81
-84.51
-82.17
-77.58
-71.81
-66.64
-63.79
-64.25
-67.96
-74.08
-81.05
-87.04
-90.21
-89.24
-83.90
-75.44
-66.40
-59.65
-57.03
-58.20
-60.59
-60.50
-54.82
-42.52
-25.06
-5.51
12.95
28.30
40.05
48.75
55.06
59.16
60.83
59.87
56.73
52.64
49.18
47.55
48.06
49.91
51.82
52.55
51.59
49.35
46.85
45.09
44.62
45.23
46.08
46.20
44.78
41.53
36.62
30.53
23.76
16.84
10.14
3.88
-1.98
-7.88
-14.62
-22.98
-33.38
-45.38
-57.54
-67.81
-74.06
-74.86
-69.86
-59.87
-46.52
-31.71
-17.07
-3.70
7.85
17.51
25.46
31.99
37.39
41.90
45.67
48.81
51.32
53.11
54.00
53.80
52.40
49.93
46.75
43.43
40.54
38.41
37.00
35.92
34.51
32.18
28.58
23.75
18.10
12.19
6.52
1.30
-3.58
-8.56
-14.23
-21.11
-29.37
-38.46
-47.16
-53.74
-56.53
-54.50
-47.64
-36.94
-23.95
-10.27
2.96
15.09
25.82
35.01
42.55
48.37
52.64
55.68
57.87
59.46
60.47
60.85
60.61
59.98
59.33
58.91
58.83
58.83
58.51
57.52
55.73
53.29
50.46
47.40
44.08
40.26
35.65
30.13
23.86
17.26
10.89
5.21
0.44
-3.57
-7.26
-11.22
-16.06
-22.12
-29.45
-37.65
-45.81
-52.60
-56.50
-56.15
-50.82
-40.75
-27.15
-11.90
2.94
15.75
25.62
32.41
36.52
38.54
39.10
38.76
37.94
37.06
36.45
36.26
36.48
36.95
37.40
37.55
37.12
35.93
34.06
31.88
30.02
29.12
29.43
30.53
31.34
30.54
27.27
21.63
14.71
8.02
2.72
-1.02
-4.00
-7.54
-12.74
-20.01
-28.98
-38.86
-48.71
-57.61
-64.78
-69.35
-70.43
-67.38
-59.97
-48.65
-34.44
-18.65
-2.61
12.63
26.39
38.41
48.73
57.71
65.86
73.78
82.16
91.54
102.27
114.26
126.90
139.07
149.33
156.26
158.83
156.69
150.06
139.59
125.92
109.61
91.28
71.93
53.14
36.94
25.20
18.96
18.00
20.90
25.56
29.87
32.00
30.54
24.46
13.21
-2.83
-21.97
-41.36
-57.79
-68.73
-73.17
-71.59
-65.23
-55.34
-42.69
-27.94
-12.24
2.38
13.55
19.37
19.38
14.78
7.78
0.54
-5.52
-9.96
-12.84
-14.07
-13.29
-9.98
-3.97
4.17
13.31
22.10
29.56
35.39
39.95
43.90
47.92
52.31
57.00
61.62
65.66
68.60
69.86
68.72
64.35
56.00
43.25
26.27
5.85
-16.83
-40.58
-64.42
-87.56
-109.20
-128.12
-142.69
-151.10
-152.08
-145.39
-132.16
-114.65
-95.56
-77.32
-61.53
-48.74
-38.68
-30.72
-24.21
-18.77
-14.25
-10.52
-7.28
-4.01
-0.03
5.09
11.24
17.62
23.00
26.19
26.66
24.75
21.58
18.51
16.45
15.56
15.26
14.66
13.09
10.41
6.92
3.05
-0.95
-5.23
-10.18
-16.25
-23.70
-32.42
-41.90
-51.23
-59.23
-64.64
-66.45
-64.08
-57.67
-48.03
-36.44
-24.42
-13.26
-3.79
3.68
9.38
13.82
17.50
20.67
23.30
25.12
25.95
25.91
25.41
24.98
25.02
25.52
26.14
26.44
26.15
25.36
24.32
23.26
22.09
20.43
17.77
13.81
8.69
2.94
-2.69
-7.65
-11.71
-15.06
-18.22
-21.79
-26.24
-31.71
-37.83
-43.75
-48.27
-50.15
-48.49
-43.10
-34.57
-24.09
-13.13
-2.94
5.63
12.30
17.17
20.56
22.83
24.28
25.12
25.48
25.38
24.82
23.75
22.14
20.10
17.84
15.64
13.78
12.43
11.56
10.92
10.15
8.91
7.01
4.44
1.40
-1.83
-4.96
-7.84
-10.45
-12.88
-15.39
-18.25
-21.67
-25.73
-30.11
-34.12
-36.70
-36.67
-33.17
-25.92
-15.40
-2.75
10.59
23.32
34.60
44.25
52.61
60.35
68.04
75.96
84.03
91.95
99.48
106.48
113.08
119.40
125.49
131.24
136.50
141.21
145.56
149.97
154.88
160.68
167.52
175.36
184.00
193.07
201.90
209.42
213.98
213.57
206.19
190.42
165.91
133.67
95.97
55.80
16.27
-20.04
-51.32
-76.64
-95.83
-109.37
-118.22
-123.68
-127.06
-129.24
-130.48
-130.22
-127.49
-121.37
-111.55
-98.59
-83.82
-68.92
-55.32
-43.87
-34.50
-26.54
-19.02
-11.23
-3.08
4.83
11.52
16.17
18.54
19.16
19.02
19.07
19.72
20.66
21.07
19.97
16.66
10.81
2.51
-7.83
-19.49
-31.30
-41.94
-50.07
-54.84
-56.27
-55.31
-53.51
-52.49
-53.09
-55.13
-57.47
-58.57
-57.39
-53.82
-49.00
-44.84
-43.36
-45.86
-52.56
-62.56
-74.37
-86.43
-97.57
-107.10
-114.69
-120.11
-123.18
-123.82
-122.27
-119.10
-115.20
-111.46
-108.38
-105.88
-103.25
-99.47
-93.74
-85.75
-75.91
-65.24
-55.00
-46.40
-40.31
-37.17
-36.99
-39.32
-43.23
-47.45
-50.47
-50.92
-48.03
-41.86
-33.33
-23.88
-14.95
-7.54
-1.97
2.05
5.11
7.81
10.54
13.44
16.51
19.66
22.79
25.86
28.80
31.51
33.87
35.78
37.15
37.96
38.25
38.16
37.86
37.52
37.22
36.94
36.57
35.95
35.01
33.76
32.24
30.46
28.24
25.40
21.84
17.70
13.47
9.81
7.23
5.89
5.43
5.08
3.95
1.21
-3.60
-10.42
-18.63
-27.05
-34.22
-38.78
-39.99
-38.00
-33.81
-28.86
-24.44
-21.21
-19.11
-17.48
-15.54
-12.69
-8.75
-3.88
1.47
6.77
11.46
15.12
17.52
18.66
18.75
18.16
17.28
16.46
15.97
15.92
16.24
16.66
16.69
15.74
13.29
9.16
3.70
-2.14
-7.07
-9.79
-9.51
-6.18
-0.59
5.97
12.16
16.98
19.99
21.26
21.18
20.20
18.71
16.96
15.06
13.04
10.75
7.87
3.98
-1.19
-7.54
-14.35
-20.35
-24.09
-24.38
-20.79
-13.84
-4.75
4.92
13.84
21.34
27.46
32.74
37.91
43.47
49.48
55.60
61.13
65.30
67.41
67.01
64.06
58.86
52.07
44.54
37.16
30.60
25.22
21.00
17.61
14.61
11.61
8.42
5.09
1.85
-1.11
-3.58
-5.63
-7.47
-9.49
-12.13
-15.77
-20.52
-26.22
-32.45
-38.60
-44.14
-48.70
-52.17
-54.68
-56.47
-57.82
-58.93
-60.00
-61.22
-62.72
-64.39
-65.80
-66.14
-64.40
-59.74
-51.92
-41.40
-29.26
-16.86
-5.29
4.83
13.33
20.26
25.60
29.16
30.76
30.43
28.64
26.21
24.02
22.71
22.48
23.10
24.14
25.19
26.03
26.64
27.07
27.41
27.75
28.16
28.69
29.37
30.13
30.82
31.32
31.60
31.78
32.09
32.72
33.67
34.73
35.54
35.76
35.25
34.19
32.93
31.91
31.35
31.33
31.68
32.20
32.73
33.11
33.22
32.88
31.98
30.70
29.68
29.95
32.78
39.17
49.47
63.23
79.22
95.88
111.84
126.27
139.09
150.75
161.80
172.52
182.69
191.69
199.00
204.59
209.08
213.33
217.79
221.93
224.23
223.04
217.47
208.09
196.61
184.93
173.97
163.12
150.65
134.68
114.15
89.09
60.32
28.78
-4.67
-39.20
-73.49
-105.81
-134.49
-158.81
-179.66
-199.48
-221.55
-248.83
-282.75
-322.47
-364.68
-404.17
-434.99
-452.06
-452.55
-436.73
-407.71
-370.25
-329.05
-287.43
-246.87
-207.48
-168.98
-131.51
-95.84
-62.97
-33.59
-7.80
14.82
34.73
52.01
66.31
76.95
83.49
86.15
85.92
84.36
83.07
83.05
84.29
85.80
86.01
83.42
77.13
67.18
54.36
39.86
24.65
9.27
-6.29
-22.34
-39.05
-56.29
-73.45
-89.59
-103.67
-114.73
-121.99
-125.00
-123.63
-118.14
-109.23
-98.00
-85.88
-74.50
-65.33
-59.38
-56.86
-57.10
-58.66
-59.74
-58.76
-54.85
-48.10
-39.40
-30.01
-21.11
-13.42
-7.24
-2.58
0.48
1.79
1.14
-1.39
-5.27
-9.58
-13.20
-15.18
-15.10
-13.08
-9.65
-5.50
-1.19
2.94
6.75
10.11
12.82
14.60
15.21
14.59
12.99
10.85
8.66
6.72
5.04
3.40
1.57
-0.50
-2.63
-4.49
-5.88
-6.79
-7.52
-8.55
-10.40
-13.49
-18.05
-23.99
-30.80
-37.49
-42.70
-45.01
-43.42
-37.67
-28.46
-17.23
-5.71
4.69
13.16
19.54
24.16
27.42
29.60
30.82
31.08
30.54
29.50
28.40
27.66
27.48
27.78
28.29
28.60
28.46
27.82
26.85
25.79
24.86
24.14
23.54
22.88
21.91
20.48
18.45
15.78
12.46
8.63
4.51
0.50
-2.87
-5.12
-6.05
-5.97
-5.66
-6.21
-8.62
-13.45
-20.52
-29.08
-37.90
-45.62
-51.00
-53.06
-51.19
-45.29
-35.90
-24.15
-11.61
0.10
9.75
16.79
21.39
24.18
25.88
27.03
27.90
28.52
28.87
28.99
28.97
28.95
28.98
29.07
29.18
29.26
29.24
29.06
28.69
28.14
27.47
26.71
25.88
24.91
23.64
21.93
19.64
16.70
13.16
9.13
4.72
0.16
-4.34
-8.58
-12.40
-15.87
-19.22
-22.88
-27.33
-32.88
-39.35
-46.00
-51.62
-54.82
-54.48
-50.12
-42.07
-31.40
-19.53
-7.87
2.47
10.89
17.24
21.72
24.79
26.94
28.63
30.20
31.94
34.01
36.57
39.53
42.56
45.07
46.47
46.40
45.06
43.05
41.14
39.81
39.04
38.30
36.93
34.53
31.16
27.31
23.55
20.21
17.23
14.27
10.90
6.92
2.41
-2.30
-6.76
-10.65
-13.93
-16.83
-19.83
-23.42
-27.98
-33.61
-40.03
-46.56
-52.16
-55.61
-55.80
-52.07
-44.53
-34.07
-22.15
-10.32
0.18
8.71
15.25
20.12
23.74
26.46
28.51
30.05
31.24
32.20
33.03
33.76
34.31
34.65
34.72
34.55
34.24
33.96
33.86
33.99
34.23
34.30
33.86
32.59
30.42
27.52
24.24
20.96
17.94
15.17
12.41
9.35
5.76
1.64
-2.78
-7.09
-10.90
-14.01
-16.55
-18.89
-21.60
-25.19
-29.92
-35.68
-41.86
-47.39
-50.99
-51.47
-48.13
-41.07
-31.20
-19.96
-8.85
1.02
9.14
15.54
20.49
24.26
27.00
28.77
29.73
30.14
30.31
30.50
30.77
31.06
31.17
31.01
30.63
30.21
30.04
30.33
31.13
32.28
33.43
34.13
34.02
32.93
30.91
28.27
25.38
22.53
19.81
17.09
14.11
10.65
6.66
2.32
-2.03
-6.07
-9.70
-12.99
-16.22
-19.73
-23.76
-28.55
-34.19
-40.52
-47.01
-52.59
-55.83
-55.44
-50.77
-42.22
-31.24
-19.70
-9.29
-0.89
5.48
10.40
14.46
17.97
20.88
22.96
24.14
24.61
24.78
25.07
25.69
26.57
27.48
28.14
28.41
28.37
28.25
28.22
28.33
28.32
27.91
26.82
24.95
22.50
19.82
17.27
15.11
13.39
11.96
10.57
8.94
6.90
4.43
1.66
-1.17
-3.73
-5.78
-7.26
-8.34
-9.45
-11.14
-13.89
-17.89
-22.84
-27.89
-31.81
-33.31
-31.46
-26.09
-17.82
-7.91
2.16
11.19
18.46
23.85
27.66
30.32
32.16
33.42
34.20
34.57
34.65
34.57
34.48
34.48
34.63
34.97
35.54
36.36
37.47
38.85
40.40
41.91
43.11
43.73
43.61
42.83
41.70
40.72
40.36
40.84
41.98
43.26
44.00
43.71
42.26
39.90
37.07
34.13
31.22
28.27
25.01
21.10
16.04
9.19
-0.16
-12.41
-27.42
-44.20
-61.27
-77.08
-90.56
-101.46
-110.11
-116.92
-121.91
-124.55
-124.10
-120.15
-113.02
-103.69
-93.38
-83.05
-73.11
-63.48
-53.97
-44.53
-35.51
-27.34
-20.36
-14.55
-9.53
-4.79
-0.02
4.79
9.28
12.94
15.39
16.52
16.55
15.98
15.33
14.93
14.83
14.80
14.43
13.39
11.51
8.91
5.88
2.79
-0.12
-2.71
-5.01
-7.14
-9.22
-11.45
-14.03
-17.15
-20.91
-25.16
-29.37
-32.65
-33.98
-32.48
-27.88
-20.55
-11.51
-2.09
6.57
13.71
19.19
23.28
26.39
28.82
30.68
31.89
32.41
32.30
31.77
31.10
30.48
29.99
29.57
29.15
28.68
28.25
27.97
27.89
27.97
28.01
27.73
26.85
25.23
22.93
20.19
17.36
14.76
12.56
10.67
8.86
6.84
4.39
1.44
-1.85
-5.25
-8.51
-11.40
-13.86
-16.04
-18.21
-20.78
-24.11
-28.39
-33.46
-38.74
-43.26
-45.91
-45.70
-42.14
-35.48
-26.69
-17.13
-8.21
-0.80
4.90
9.37
13.35
17.40
21.60
25.60
28.84
31.00
32.22
33.01
34.02
35.77
38.48
42.00
45.97
49.98
53.68
56.87
59.51
61.73
63.77
65.78
67.82
69.74
71.29
72.25
72.57
72.41
72.11
72.11
72.83
74.58
77.33
80.42
82.36
80.91
73.57
58.39
34.68
3.55
-32.32
-69.32
-103.69
-132.30
-152.97
-164.64
-167.28
-161.82
-149.99
-134.13
-116.75
-100.09
-85.65
-73.96
-64.70
-57.02
-50.02
-43.10
-36.10
-29.23
-22.91
-17.45
-12.97
-9.34
-6.25
-3.37
-0.44
2.67
5.94
9.21
12.27
14.88
16.86
18.14
18.75
18.80
18.42
17.77
16.96
16.07
15.12
14.10
12.95
11.64
10.11
8.34
6.35
4.18
1.93
-0.32
-2.54
-4.76
-7.14
-9.94
-13.42
-17.77
-22.86
-28.23
-33.05
-36.34
-37.20
-35.15
-30.24
-23.12
-14.71
-6.00
2.30
9.79
16.39
22.13
27.02
30.97
33.88
35.73
36.67
37.05
37.21
37.42
37.74
38.03
38.11
37.88
37.43
37.03
37.00
37.52
38.52
39.63
40.35
40.11
38.53
35.51
31.31
26.46
21.59
17.24
13.63
10.63
7.89
5.03
1.84
-1.62
-5.11
-8.37
-11.26
-13.83
-16.23
-18.71
-21.49
-24.78
-28.71
-33.19
-37.86
-42.04
-44.84
-45.44
-43.39
-38.80
-32.31
-24.95
-17.75
-11.48
-6.41
-2.39
1.02
4.23
7.43
10.58
13.48
15.93
17.89
19.46
20.82
22.02
23.05
23.79
24.21
24.42
24.69
25.24
26.20
27.42
28.55
29.19
29.03
27.99
26.24
24.13
21.98
19.97
18.08
16.08
13.66
10.64
6.99
2.88
-1.41
-5.54
-9.27
-12.51
-15.35
-18.05
-21.03
-24.74
-29.46
-35.16
-41.35
-47.09
-51.27
-52.94
-51.61
-47.47
-41.22
-33.86
-26.32
-19.24
-12.90
-7.30
-2.34
2.06
5.92
9.19
11.83
13.88
15.43
16.63
17.61
18.46
19.17
19.66
19.81
19.56
18.99
18.27
17.62
17.17
16.87
16.51
15.81
14.67
13.10
11.33
9.58
7.99
6.49
4.90
3.02
0.74
-1.89
-4.68
-7.40
-9.89
-12.07
-14.01
-15.91
-18.03
-20.71
-24.18
-28.54
-33.57
-38.74
-43.23
-46.15
-46.76
-44.73
-40.30
-34.13
-27.10
-20.00
-13.33
-7.27
-1.87
2.85
6.83
10.02
12.47
14.39
16.07
17.72
19.43
21.15
22.77
24.27
25.70
27.17
28.77
30.51
32.35
34.24
36.09
37.78
39.13
39.90
39.95
39.30
38.17
36.96
36.02
35.51
35.29
34.95
33.98
32.07
29.16
25.57
21.76
18.15
14.90
11.84
8.56
4.60
-0.35
-6.31
-12.99
-19.86
-26.26
-31.49
-34.94
-36.18
-35.11
-31.98
-27.38
-22.10
-16.91
-12.40
-8.77
-5.89
-3.42
-0.98
1.63
4.37
6.95
8.99
10.25
10.76
10.79
10.79
11.12
11.89
12.94
13.97
14.75
15.21
15.49
15.76
16.11
16.47
16.71
16.73
16.56
16.26
15.92
15.42
14.50
12.89
10.38
7.05
3.16
-0.90
-4.77
-8.31
-11.60
-14.91
-18.59
-22.79
-27.35
-31.71
-35.01
-36.35
-35.16
-31.43
-25.85
-19.56
-13.74
-9.14
-5.89
-3.49
-1.16
1.85
5.88
10.76
15.72
19.58
21.01
18.98
13.11
3.94
-7.21
-18.66
-28.89
-37.04
-42.94
-46.93
-49.43
-50.75
-50.94
-50.06
-48.25
-45.86
-43.29
-40.82
-38.49
-36.08
-33.34
-30.20
-26.84
-23.63
-21.03
-19.33
-18.60
-18.70
-19.36
-20.23
-20.96
-21.15
-20.35
-18.18
-14.45
-9.25
-2.99
3.68
10.12
15.86
20.67
24.56
27.65
30.04
31.75
32.81
33.26
33.27
33.09
33.02
33.28
33.95
34.91
35.96
36.86
37.44
37.63
37.42
36.80
35.67
33.83
31.07
27.29
22.60
17.39
12.15
7.29
2.94
-1.09
-5.14
-9.48
-14.13
-18.79
-23.04
-26.44
-28.65
-29.45
-28.59
-25.87
-21.34
-15.37
-8.77
-2.55
2.52
6.21
8.94
11.51
14.66
18.60
22.95
26.88
29.53
30.33
29.19
26.44
22.60
18.28
13.98
10.13
7.01
4.76
3.37
2.65
2.26
1.78
0.77
-1.10
-4.00
-7.95
-12.77
-18.14
-23.72
-29.15
-34.19
-38.83
-43.25
-47.64
-52.01
-55.95
-58.78
-59.68
-58.10
-54.07
-48.19
-41.42
-34.70
-28.60
-23.22
-18.37
-13.71
-9.09
-4.51
-0.17
3.72
7.01
9.70
11.82
13.40
14.42
14.69
13.94
11.93
8.59
4.12
-0.92
-5.75
-9.64
-12.19
-13.45
-13.88
-14.05
-14.44
-15.16
-15.99
-16.65
-16.97
-17.09
-17.43
-18.48
-20.63
-23.96
-28.23
-32.87
-37.10
-40.02
-40.86
-39.18
-35.02
-28.87
-21.54
-13.90
-6.61
-0.08
5.58
10.44
14.64
18.25
21.32
23.85
25.86
27.43
28.69
29.76
30.68
31.42
31.90
32.06
31.93
31.65
31.36
31.17
30.99
30.68
30.07
29.12
27.89
26.47
24.91
23.14
21.02
18.44
15.41
12.07
8.68
5.43
2.46
-0.24
-2.77
-5.26
-7.89
-10.85
-14.33
-18.44
-23.09
-27.84
-31.94
-34.46
-34.62
-32.12
-27.23
-20.76
-13.76
-7.11
-1.31
3.61
7.90
11.88
15.69
19.32
22.64
25.54
28.01
30.11
31.88
33.34
34.44
35.11
35.36
35.26
34.95
34.59
34.28
34.06
33.90
33.70
33.36
32.70
31.56
29.82
27.40
24.39
20.97
17.42
14.09
11.22
8.89
6.95
5.04
2.63
-0.74
-5.34
-11.03
-17.23
-23.01
-27.39
-29.56
-29.23
-26.65
-22.52
-17.76
-13.16
-9.19
-5.96
-3.29
-0.94
1.22
3.19
4.86
6.13
6.96
7.44
7.75
8.04
8.43
8.97
9.61
10.27
10.81
11.10
11.02
10.47
9.50
8.20
6.77
5.39
4.16
3.05
1.93
0.60
-1.09
-3.14
-5.48
-7.98
-10.54
-13.19
-15.98
-18.98
-22.23
-25.66
-29.21
-32.81
-36.32
-39.45
-41.69
-42.41
-41.08
-37.53
-32.10
-25.56
-18.84
-12.63
-7.20
-2.43
1.98
6.26
10.36
14.03
16.97
18.95
19.98
20.19
19.78
18.93
17.70
16.17
14.42
12.55
10.65
8.78
6.89
4.80
2.32
-0.70
-4.25
-8.08
-11.76
-14.79
-16.81
-17.73
-17.71
-17.19
-16.61
-16.28
-16.28
-16.45
-16.51
-16.19
-15.38
-14.17
-12.89
-11.93
-11.68
-12.34
-13.84
-15.73
-17.37
-17.98
-16.92
-13.88
-8.94
-2.57
4.50
11.49
17.72
22.82
26.69
29.55
31.72
33.60
35.51
37.68
40.22
43.12
46.23
49.31
52.10
54.32
55.84
56.67
57.02
57.16
57.33
57.62
57.94
58.11
57.89
57.18
56.03
54.61
53.12
51.78
50.74
50.00
49.33
48.12
45.32
39.72
30.30
16.61
-0.95
-21.23
-42.70
-63.80
-83.20
-99.77
-112.53
-120.58
-123.29
-120.55
-112.96
-101.89
-89.00
-75.90
-63.70
-52.92
-43.49
-35.07
-27.22
-19.68
-12.41
-5.53
0.75
6.25
10.99
15.12
18.91
22.57
26.16
29.53
32.42
34.59
35.94
36.58
36.71
36.60
36.39
36.08
35.56
34.62
33.05
30.75
27.71
24.01
19.89
15.64
11.60
8.08
5.19
2.91
0.90
-1.40
-4.63
-9.27
-15.52
-23.09
-31.23
-39.00
-45.51
-50.26
-53.29
-55.14
-56.66
-58.60
-61.35
-64.77
-68.18
-70.67
-71.40
-69.84
-65.98
-60.28
-53.45
-46.26
-39.29
-32.87
-27.13
-22.12
-17.78
-14.06
-10.83
-7.84
-4.83
-1.61
1.82
5.22
8.14
10.18
11.14
11.15
10.67
10.19
10.10
10.49
11.13
11.68
11.84
11.49
10.73
9.76
8.68
7.45
5.91
3.89
1.32
-1.79
-5.30
-9.13
-13.17
-17.26
-21.02
-23.79
-24.73
-23.07
-18.50
-11.31
-2.41
6.96
15.68
23.02
28.81
33.27
36.79
39.68
42.03
43.76
44.72
44.92
44.49
43.71
42.96
42.55
42.64
43.26
44.25
45.39
46.44
47.18
47.44
47.02
45.75
43.48
40.18
36.04
31.39
26.68
22.22
18.08
14.13
10.03
5.50
0.43
-5.06
-10.70
-16.15
-21.19
-25.76
-29.97
-34.13
-38.66
-44.00
-50.50
-58.17
-66.59
-74.82
-81.59
-85.59
-85.91
-82.27
-75.21
-65.84
-55.50
-45.42
-36.37
-28.59
-21.98
-16.19
-10.99
-6.29
-2.16
1.26
3.87
5.77
7.14
8.24
9.29
10.38
11.50
12.60
13.62
14.52
15.28
15.84
16.06
15.85
15.14
13.99
12.55
10.99
9.37
7.62
5.59
3.17
0.38
-2.64
-5.60
-8.29
-10.65
-12.74
-14.78
-17.06
-19.79
-23.13
-27.02
-31.20
-35.13
-38.09
-39.32
-38.29
-34.91
-29.58
-23.02
-16.08
-9.40
-3.34
2.03
6.76
10.92
14.52
17.50
19.81
21.43
22.35
22.59
22.23
21.47
20.59
19.89
19.63
19.89
20.61
21.59
22.58
23.33
23.60
23.21
22.09
20.26
17.93
15.39
12.94
10.75
8.87
7.15
5.38
3.37
1.05
-1.52
-4.24
-6.95
-9.56
-12.10
-14.75
-17.72
-21.19
-25.22
-29.57
-33.75
-37.04
-38.71
-38.21
-35.38
-30.49
-24.25
-17.51
-11.04
-5.34
-0.56
3.39
6.70
9.56
12.09
14.38
16.47
18.39
20.13
21.58
22.67
23.34
23.69
23.89
24.18
24.70
25.48
26.39
27.22
27.75
27.82
27.42
26.62
25.54
24.31
22.99
21.55
19.89
17.91
15.56
12.88
10.03
7.17
4.43
1.77
-0.98
-4.07
-7.74
-12.06
-16.85
-21.65
-25.79
-28.56
-29.37
-27.93
-24.38
-19.23
-13.25
-7.24
-1.91
2.34
5.42
7.49
8.89
9.92
10.78
11.51
12.02
12.24
12.12
11.74
11.27
10.82
10.41
10.00
9.46
8.71
7.84
7.00
6.33
5.86
5.42
4.70
3.42
1.43
-1.16
-4.04
-6.88
-9.38
-11.47
-13.25
-14.92
-16.73
-18.95
-21.78
-25.37
-29.56
-33.94
-37.81
-40.33
-40.82
-38.93
-34.85
-29.17
-22.74
-16.36
-10.60
-5.71
-1.67
1.71
4.67
7.38
9.95
12.32
14.39
16.04
17.17
17.86
18.25
18.53
18.84
19.21
19.57
19.76
19.65
19.16
18.32
17.15
15.66
13.85
11.72
9.28
6.61
3.83
1.07
-1.60
-4.17
-6.69
-9.20
-11.79
-14.52
-17.50
-20.86
-24.65
-28.81
-33.08
-36.90
-39.62
-40.52
-39.06
-35.10
-28.91
-21.21
-12.95
-5.07
1.77
7.32
11.69
15.29
18.47
21.48
24.38
27.05
29.33
31.13
32.45
33.39
34.06
34.50
34.69
34.51
33.93
32.98
31.85
30.74
29.73
28.70
27.34
25.38
22.72
19.57
16.31
13.28
10.56
7.88
4.86
1.24
-2.83
-6.85
-10.18
-12.40
-13.53
-14.06
-14.71
-16.02
-18.10
-20.45
-22.16
-22.27
-20.13
-15.67
-9.46
-2.50
4.10
9.47
13.18
15.27
16.17
16.38
16.34
16.29
16.27
16.20
16.01
15.66
15.14
14.44
13.53
12.37
10.98
9.43
7.92
6.63
5.76
5.43
5.61
6.18
6.95
7.68
8.23
8.48
8.40
7.97
7.19
6.04
4.51
2.55
0.16
-2.68
-6.08
-10.15
-15.09
-21.10
-28.30
-36.59
-45.55
-54.31
-61.65
-66.33
-67.35
-64.35
-57.72
-48.44
-37.71
-26.63
-15.92
-5.89
3.36
11.79
19.31
25.75
31.00
35.02
37.89
39.76
40.79
41.13
40.87
40.07
38.84
37.34
35.71
34.11
32.57
30.97
29.08
26.66
23.56
19.82
15.67
11.35
7.08
2.88
-1.35
-5.75
-10.33
-14.95
-19.31
-23.11
-26.17
-28.48
-30.21
-31.69
-33.28
-35.32
-38.00
-41.20
-44.48
-47.01
-47.78
-45.91
-40.89
-32.82
-22.42
-10.76
1.01
11.99
21.68
29.98
37.09
43.35
49.07
54.43
59.37
63.56
66.49
67.64
66.66
63.52
58.61
52.55
46.03
39.54
33.35
27.46
21.77
16.17
10.57
4.98
-0.63
-6.20
-11.62
-16.69
-21.15
-24.85
-27.88
-30.58
-33.45
-36.88
-40.82
-44.77
-47.93
-49.48
-49.00
-46.58
-42.75
-38.27
-33.89
-30.15
-27.43
-25.79
-25.01
-24.50
-23.38
-20.78
-16.11
-9.40
-1.32
7.08
14.74
20.98
25.57
28.73
30.83
32.26
33.32
34.17
34.87
35.39
35.51
34.97
33.53
31.07
27.76
23.98
20.26
17.12
14.93
13.85
13.74
14.19
14.52
13.93
11.63
7.15
0.43
-8.06
-17.51
-26.97
-35.54
-42.60
-47.78
-50.97
-52.23
-51.72
-49.73
-46.63
-42.82
-38.76
-34.85
-31.50
-29.08
-27.84
-27.81
-28.71
-29.90
-30.54
-29.83
-27.27
-22.92
-17.33
-11.38
-5.90
-1.46
1.85
4.33
6.40
8.49
10.78
13.20
15.50
17.43
18.80
19.59
19.89
19.86
19.69
19.49
19.33
19.28
19.40
19.72
20.19
20.66
20.84
20.47
19.33
17.44
15.00
12.32
9.72
7.38
5.37
3.59
1.83
-0.10
-2.38
-5.03
-7.92
-10.81
-13.46
-15.73
-17.73
-19.72
-22.05
-24.83
-27.90
-30.80
-32.90
-33.61
-32.57
-29.69
-25.16
-19.42
-13.03
-6.60
-0.69
4.29
8.21
11.17
13.42
15.27
16.94
18.50
19.97
21.23
22.23
22.90
23.20
23.16
22.87
22.47
22.18
22.16
22.48
23.09
23.79
24.31
24.37
23.77
22.44
20.42
17.95
15.29
12.76
10.58
8.75
7.11
5.37
3.30
0.79
-2.04
-4.99
-7.81
-10.40
-12.86
-15.41
-18.35
-21.85
-25.87
-30.07
-33.89
-36.70
-37.95
-37.33
-34.86
-30.82
-25.69
-20.02
-14.27
-8.85
-3.95
0.31
3.93
6.97
9.53
11.73
13.62
15.27
16.65
17.72
18.45
18.83
18.97
19.00
19.11
19.45
20.08
20.93
21.80
22.43
22.59
22.13
21.05
19.52
17.78
16.14
14.79
13.78
12.99
12.12
10.85
8.96
6.42
3.41
0.24
-2.81
-5.60
-8.24
-11.01
-14.26
-18.22
-22.92
-28.07
-33.17
-37.54
-40.50
-41.56
-40.49
-37.40
-32.76
-27.25
-21.61
-16.46
-12.12
-8.61
-5.65
-2.88
0.01
3.08
6.19
9.05
11.42
13.17
14.34
15.10
15.62
16.08
16.59
17.31
18.40
19.86
21.62
23.36
24.73
25.42
25.37
24.70
23.76
22.89
22.22
21.68
20.95
19.70
17.71
14.96
11.70
8.30
5.05
2.10
-0.61
-3.30
-6.25
-9.72
-13.82
-18.56
-23.76
-28.99
-33.67
-37.10
-38.69
-38.14
-35.57
-31.50
-26.62
-21.59
-16.85
-12.58
-8.79
-5.44
-2.51
-0.02
2.03
3.73
5.18
6.50
7.74
8.90
9.90
10.73
11.40
12.05
12.79
13.72
14.83
15.98
16.96
17.55
17.55
16.87
15.58
13.82
11.81
9.79
7.86
6.03
4.18
2.12
-0.33
-3.27
-6.68
-10.37
-14.13
-17.84
-21.52
-25.37
-29.66
-34.51
-39.71
-44.69
-48.61
-50.63
-50.20
-47.25
-42.17
-35.66
-28.48
-21.28
-14.48
-8.34
-2.97
1.59
5.36
8.45
11.04
13.31
15.37
17.26
18.90
20.18
21.01
21.38
21.42
21.37
21.53
22.10
23.06
24.13
24.88
24.87
23.92
22.15
19.95
17.76
15.89
14.31
12.78
10.96
8.63
5.77
2.58
-0.67
-3.75
-6.56
-9.12
-11.54
-14.02
-16.79
-20.11
-24.08
-28.71
-33.73
-38.66
-42.85
-45.64
-46.45
-44.97
-41.23
-35.57
-28.64
-21.23
-14.14
-7.94
-2.91
1.01
4.09
6.59
8.65
10.28
11.43
12.11
12.49
12.83
13.35
14.15
15.18
16.28
17.36
18.39
19.43
20.51
21.58
22.45
22.88
22.74
22.06
21.06
20.06
19.30
18.86
18.56
18.08
17.05
15.25
12.71
9.67
6.52
3.59
1.04
-1.17
-3.34
-5.83
-9.00
-13.00
-17.70
-22.67
-27.26
-30.78
-32.66
-32.60
-30.64
-27.05
-22.28
-16.84
-11.19
-5.78
-0.91
3.23
6.63
9.49
12.05
14.53
17.01
19.38
21.42
22.94
23.88
24.35
24.57
24.79
25.18
25.77
26.45
27.05
27.34
27.16
26.46
25.23
23.57
21.57
19.35
17.00
14.58
12.18
9.83
7.54
5.33
3.24
1.25
-0.64
-2.47
-4.34
-6.32
-8.47
-10.85
-13.45
-16.21
-18.94
-21.22
-22.41
-21.82
-18.94
-13.72
-6.66
1.33
9.28
16.46
22.58
27.65
31.77
34.93
37.12
38.34
38.83
38.92
38.89
38.82
38.47
37.47
35.53
32.65
29.13
25.40
21.87
18.70
15.83
13.03
10.06
6.74
3.01
-1.03
-5.21
-9.25
-12.95
-16.15
-18.88
-21.24
-23.45
-25.69
-28.02
-30.42
-32.78
-35.06
-37.25
-39.41
-41.66
-44.13
-46.91
-50.01
-53.30
-56.37
-58.64
-59.32
-57.74
-53.57
-47.03
-38.83
-30.01
-21.52
-13.95
-7.44
-1.75
3.40
8.17
12.47
16.06
18.70
20.33
21.09
21.25
21.05
20.66
20.13
19.49
18.81
18.18
17.71
17.42
17.22
16.96
16.47
15.74
14.84
13.85
12.82
11.63
10.14
8.28
6.07
3.70
1.35
-0.86
-3.01
-5.25
-7.77
-10.72
-14.13
-17.92
-21.88
-25.70
-28.87
-30.79
-30.87
-28.78
-24.65
-19.06
-12.95
-7.26
-2.68
0.53
2.49
3.57
4.13
4.42
4.56
4.60
4.65
4.81
5.22
5.96
6.98
8.09
9.06
9.73
10.03
10.06
9.94
9.83
9.72
9.43
8.75
7.47
5.55
3.06
0.21
-2.82
-5.87
-8.81
-11.56
-14.01
-16.20
-18.27
-20.51
-23.26
-26.74
-30.96
-35.60
-40.11
-43.80
-46.03
-46.31
-44.38
-40.29
-34.41
-27.30
-19.70
-12.25
-5.45
0.42
5.31
9.29
12.44
14.93
16.90
18.56
20.08
21.53
22.84
23.81
24.21
23.99
23.33
22.57
22.03
21.83
21.80
21.62
20.93
19.61
17.76
15.64
13.48
11.33
9.06
6.48
3.49
0.17
-3.26
-6.52
-9.40
-11.92
-14.23
-16.54
-19.03
-21.78
-24.75
-27.88
-31.03
-33.99
-36.37
-37.63
-37.17
-34.58
-29.86
-23.50
-16.31
-9.13
-2.59
3.12
8.09
12.54
16.60
20.21
23.22
25.45
26.91
27.73
28.16
28.44
28.64
28.76
28.73
28.53
28.26
28.06
28.10
28.47
29.07
29.73
30.24
30.39
30.11
29.36
28.21
26.69
24.84
22.67
20.16
17.33
14.27
11.14
8.12
5.31
2.70
0.09
-2.83
-6.28
-10.32
-14.65
-18.71
-21.79
-23.26
-22.74
-20.31
-16.39
-11.59
-6.61
-1.94
2.14
5.52
8.24
10.32
11.76
12.60
12.92
12.88
12.72
12.64
12.79
13.22
13.88
14.68
15.53
16.32
17.01
17.56
17.92
18.06
17.90
17.33
16.25
14.64
12.53
10.05
7.42
4.82
2.41
0.25
-1.67
-3.39
-5.00
-6.68
-8.69
-11.31
-14.67
-18.62
-22.60
-25.80
-27.35
-26.67
-23.67
-18.75
-12.70
-6.41
-0.63
4.18
7.84
10.41
12.06
12.99
13.48
13.73
13.99
14.35
14.84
15.40
15.90
16.29
16.59
16.90
17.36
18.14
19.35
21.04
23.11
25.23
26.85
27.30
25.99
22.68
17.57
11.32
4.74
-1.44
-6.85
-11.50
-15.64
-19.61
-23.73
-28.23
-33.34
-39.13
-45.47
-51.81
-57.22
-60.66
-61.28
-58.87
-53.90
-47.40
-40.58
-34.40
-29.34
-25.42
-22.34
-19.76
-17.39
-15.08
-12.79
-10.56
-8.53
-6.83
-5.60
-4.87
-4.51
-4.31
-4.06
-3.59
-2.83
-1.84
-0.74
0.32
1.18
1.65
1.57
0.85
-0.49
-2.38
-4.63
-7.06
-9.52
-11.96
-14.37
-16.70
-18.94
-21.06
-23.07
-25.03
-27.09
-29.34
-31.85
-34.56
-37.31
-39.81
-41.65
-42.37
-41.47
-38.66
-33.91
-27.53
-20.13
-12.42
-5.05
1.58
7.31
12.16
16.20
19.47
22.07
24.13
25.83
27.41
28.98
30.55
31.91
32.82
33.18
33.06
32.71
32.47
32.56
32.99
33.59
34.03
34.01
33.34
32.02
30.30
28.57
27.26
26.68
26.84
27.46
28.14
28.52
28.60
28.73
29.46
31.27
34.25
38.02
41.81
44.86
46.68
47.31
47.28
47.45
48.73
51.82
56.98
64.07
72.55
81.71
90.97
100.10
109.49
120.12
133.24
149.54
168.33
187.00
201.25
206.40
198.99
178.22
146.25
107.34
66.07
25.69
-12.71
-50.02
-88.18
-129.06
-173.51
-220.68
-267.90
-310.95
-344.96
-365.64
-370.52
-359.61
-335.18
-300.64
-259.36
-213.78
-165.30
-114.79
-63.13
-11.57
38.19
84.23
124.35
156.33
178.19
188.83
188.62
179.61
165.17
149.08
134.62
123.93
117.77
115.74
116.63
118.67
119.85
118.29
112.69
102.77
89.30
73.82
57.96
42.70
28.16
13.80
-1.02
-16.26
-30.96
-43.33
-51.39
-53.76
-50.28
-42.21
-31.95
-22.36
-15.88
-13.92
-16.48
-22.33
-29.51
-35.92
-39.97
-40.89
-38.93
-35.15
-31.15
-28.61
-28.82
-32.37
-38.88
-47.19
-55.69
-62.84
-67.66
-70.02
-70.61
-70.68
-71.63
-74.50
-79.62
-86.46
-93.63
-99.34
-101.86
-100.12
-94.01
-84.34
-72.46
-59.91
-47.88
-37.17
-28.19
-21.04
-15.62
-11.59
-8.51
-5.90
-3.47
-1.15
0.94
2.66
4.03
5.27
6.62
8.27
10.17
12.05
13.67
14.84
15.51
15.67
15.26
14.09
12.02
9.10
5.70
2.57
0.52
0.16
1.49
3.88
6.25
7.57
7.22
5.23
2.04
-1.84
-6.21
-11.18
-16.86
-22.93
-28.51
-32.34
-33.30
-31.00
-25.97
-19.44
-12.74
-6.74
-1.57
3.22
8.20
13.70
19.54
25.13
29.79
33.02
34.62
34.73
33.64
31.71
29.21
26.36
23.40
20.46
17.68
15.09
12.62
10.13
7.54
4.78
1.91
-1.05
-4.07
-7.22
-10.61
-14.29
-18.26
-22.37
-26.42
-30.24
-33.70
-36.84
-39.78
-42.74
-45.98
-49.73
-54.13
-59.17
-64.58
-69.74
-73.72
-75.47
-74.09
-69.21
-61.14
-50.93
-39.96
-29.58
-20.72
-13.74
-8.50
-4.61
-1.63
0.79
2.89
4.90
7.00
9.27
11.72
14.24
16.73
19.12
21.42
23.64
25.72
27.54
28.93
29.80
30.21
30.36
30.48
30.68
30.83
30.70
30.05
28.84
27.34
26.05
25.53
26.21
28.16
31.23
34.95
38.72
41.88
43.88
44.38
43.41
41.37
39.04
37.28
36.75
37.63
39.55
41.61
42.87
42.58
40.44
36.69
31.99
27.11
22.76
19.39
17.12
15.78
14.99
14.17
12.69
9.95
5.64
-0.13
-6.75
-13.45
-19.46
-24.40
-28.26
-31.28
-33.71
-35.64
-36.98
-37.73
-37.92
-37.59
-36.40
-33.46
-27.36
-16.90
-1.83
16.50
35.19
50.54
59.20
59.09
49.94
33.05
10.69
-14.52
-40.10
-63.81
-83.76
-98.61
-107.94
-112.46
-113.91
-114.45
-115.77
-118.38
-121.37
-122.95
-121.45
-116.15
-107.66
-97.55
-87.57
-78.82
-71.54
-65.27
-59.49
-54.03
-49.20
-45.58
-43.61
-43.29
-44.18
-45.41
-45.76
-43.81
-38.15
-27.82
-12.92
5.04
23.34
38.91
49.50
54.52
55.09
53.33
51.30
50.12
49.86
50.07
50.29
50.41
50.60
51.05
51.81
52.93
54.62
57.45
62.17
69.46
79.56
92.09
106.06
120.14
133.02
143.80
152.26
158.79
164.12
168.62
171.93
172.79
169.47
160.47
145.24
124.63
100.96
77.69
58.52
46.43
42.67
46.35
54.70
64.19
71.83
75.91
76.10
72.82
66.38
56.61
42.99
25.32
4.18
-19.04
-42.53
-64.54
-83.85
-99.62
-111.38
-118.88
-122.05
-121.24
-117.15
-110.87
-103.64
-96.79
-91.44
-88.43
-88.03
-89.75
-92.42
-94.29
-93.64
-89.30
-81.13
-70.11
-58.01
-46.82
-38.03
-32.28
-29.27
-28.06
-27.55
-26.80
-25.25
-22.65
-19.01
-14.44
-9.09
-3.13
3.21
9.62
15.81
21.52
26.68
31.29
35.42
39.04
41.94
43.72
44.01
42.57
39.54
35.38
30.79
26.49
22.95
20.33
18.49
17.13
16.01
14.97
14.03
13.21
12.48
11.70
10.61
9.03
6.83
4.02
0.82
-2.33
-4.63
-5.01
-2.20
4.85
16.67
32.97
52.65
74.10
95.56
115.57
133.19
148.11
160.48
170.78
179.40
186.43
191.51
193.92
192.92
188.21
180.14
169.73
158.40
147.47
138.00
130.75
126.29
125.04
126.90
130.88
134.91
136.16
131.76
119.62
99.13
71.23
38.09
2.48
-33.00
-66.92
-99.56
-132.93
-169.40
-210.17
-253.69
-295.44
-329.49
-350.75
-356.61
-347.01
-323.30
-287.26
-241.52
-190.96
-143.82
-110.34
-98.98
-111.78
-141.86
-175.31
-196.88
-196.59
-173.84
-136.63
-96.80
-64.28
-43.22
-31.87
-25.40
-19.36
-11.96
-4.10
2.21
5.70
6.89
7.59
9.63
13.63
18.64
22.69
23.96
21.82
17.15
11.96
8.46
8.10
10.97
15.76
20.32
22.50
21.08
16.13
8.96
1.46
-4.75
-8.96
-11.60
-13.80
-16.82
-21.32
-27.21
-33.74
-40.02
-45.33
-49.31
-51.79
-52.55
-51.21
-47.39
-40.89
-31.90
-21.06
-9.34
2.29
12.95
22.02
29.08
33.89
36.38
36.67
35.16
32.47
29.39
26.59
24.47
23.05
21.95
20.67
18.76
16.09
12.88
9.55
6.55
4.14
2.32
0.86
-0.54
-2.11
-3.98
-6.17
-8.66
-11.46
-14.53
-17.80
-21.12
-24.31
-27.38
-30.49
-34.02
-38.35
-43.48
-48.87
-53.42
-55.78
-54.80
-50.07
-42.04
-31.86
-20.96
-10.61
-1.62
5.72
11.53
16.10
19.69
22.42
24.35
25.46
25.80
25.54
24.98
24.40
24.06
24.01
24.14
24.21
24.05
23.66
23.18
22.88
22.87
23.03
22.97
22.18
20.27
17.11
12.97
8.34
3.81
-0.23
-3.65
-6.60
-9.44
-12.53
-16.13
-20.39
-25.30
-30.69
-36.20
-41.25
-44.99
-46.50
-45.02
-40.23
-32.53
-22.94
-12.83
-3.48
4.28
10.22
14.54
17.59
19.64
20.78
21.02
20.53
19.65
18.88
18.60
18.99
19.87
20.84
21.50
21.64
21.31
20.74
20.19
19.77
19.40
18.86
17.80
15.95
13.20
9.67
5.70
1.74
-1.78
-4.61
-6.86
-8.89
-11.25
-14.47
-18.85
-24.31
-30.28
-35.79
-39.65
-40.74
-38.32
-32.34
-23.52
-13.20
-2.97
5.78
12.26
16.47
19.10
21.23
23.82
27.43
31.89
36.52
40.38
42.81
43.71
43.68
43.73
44.78
47.35
51.24
55.69
59.83
63.03
65.21
66.83
68.58
70.99
74.17
77.75
81.12
83.72
85.20
85.40
84.18
81.39
77.24
72.65
69.20
68.62
71.64
77.10
81.90
82.08
74.43
57.95
34.11
5.87
-23.67
-52.39
-79.16
-103.17
-123.18
-137.41
-144.29
-143.35
-135.78
-124.05
-110.96
-98.65
-88.04
-78.94
-70.70
-62.71
-54.87
-47.53
-41.23
-36.45
-33.37
-31.88
-31.62
-32.13
-32.91
-33.62
-34.12
-34.53
-35.25
-36.76
-39.51
-43.64
-48.92
-54.69
-60.01
-63.79
-65.07
-63.19
-57.95
-49.70
-39.28
-27.88
-16.74
-6.85
1.26
7.53
12.27
15.88
18.69
20.86
22.44
23.40
23.78
23.69
23.27
22.71
22.13
21.59
21.14
20.80
20.55
20.35
20.06
19.43
18.16
16.01
12.89
8.97
4.62
0.33
-3.51
-6.70
-9.31
-11.63
-14.11
-17.19
-21.27
-26.56
-32.96
-39.89
-46.38
-51.12
-52.84
-50.70
-44.53
-34.89
-22.84
-9.68
3.32
15.06
24.66
31.57
35.65
37.23
37.02
35.93
34.74
33.93
33.60
33.59
33.70
33.77
33.72
33.46
32.95
32.15
31.13
30.05
29.02
28.10
27.09
25.73
23.71
20.90
17.39
13.45
9.44
5.64
2.18
-1.00
-4.10
-7.39
-11.14
-15.59
-20.84
-26.76
-32.87
-38.28
-41.84
-42.48
-39.60
-33.40
-24.83
-15.26
-6.04
2.00
8.62
13.99
18.43
22.10
24.92
26.75
27.55
27.50
26.97
26.39
26.10
26.21
26.65
27.21
27.68
27.89
27.79
27.39
26.72
25.74
24.36
22.43
19.84
16.58
12.80
8.78
4.82
1.16
-2.09
-4.94
-7.54
-10.11
-12.95
-16.41
-20.77
-26.10
-32.05
-37.83
-42.26
-44.14
-42.68
-37.76
-30.04
-20.69
-11.05
-2.18
5.36
11.44
16.22
19.96
22.89
25.23
27.15
28.84
30.41
31.85
33.06
33.83
34.08
33.82
33.25
32.61
32.14
31.96
31.99
32.02
31.73
30.87
29.27
26.97
24.09
20.86
17.44
13.90
10.28
6.50
2.52
-1.61
-5.71
-9.51
-12.76
-15.35
-17.43
-19.39
-21.81
-25.23
-29.87
-35.51
-41.45
-46.54
-49.53
-49.37
-45.50
-38.05
-27.73
-15.70
-3.30
8.22
17.94
25.30
30.24
33.06
34.37
34.90
35.26
35.81
36.59
37.47
38.19
38.67
38.90
38.95
38.87
38.60
38.12
37.46
36.74
36.07
35.43
34.61
33.28
31.12
28.08
24.40
20.58
17.12
14.31
12.09
10.16
8.11
5.67
2.79
-0.36
-3.50
-6.45
-9.22
-11.99
-15.04
-18.64
-22.99
-28.09
-33.70
-39.32
-44.13
-47.16
-47.53
-44.76
-38.98
-30.99
-22.01
-13.27
-5.67
0.45
5.14
8.68
11.32
13.11
14.03
14.12
13.56
12.67
11.77
11.07
10.57
10.13
9.63
9.03
8.47
8.11
8.10
8.41
8.90
9.31
9.41
9.11
8.42
7.42
6.25
4.95
3.51
1.81
-0.22
-2.64
-5.37
-8.23
-10.97
-13.38
-15.39
-17.08
-18.70
-20.60
-23.11
-26.44
-30.53
-34.95
-38.90
-41.34
-41.35
-38.36
-32.51
-24.57
-15.67
-7.03
0.52
6.58
11.12
14.42
16.79
18.48
19.67
20.49
21.03
21.33
21.43
21.33
21.08
20.78
20.47
20.21
20.00
19.75
19.46
19.16
18.89
18.70
18.52
18.18
17.42
16.04
14.02
11.54
8.93
6.47
4.22
2.01
-0.48
-3.49
-7.02
-10.75
-14.23
-17.08
-19.19
-20.84
-22.50
-24.72
-27.87
-32.01
-36.77
-41.36
-44.70
-45.69
-43.54
-38.16
-30.15
-20.73
-11.29
-2.98
3.60
8.42
11.84
14.32
16.27
17.91
19.34
20.57
21.57
22.30
22.78
23.04
23.16
23.21
23.18
23.09
22.98
22.93
23.05
23.36
23.71
23.80
23.29
22.00
19.99
17.53
14.96
12.51
10.27
8.13
6.00
3.81
1.51
-0.91
-3.50
-6.27
-9.09
-11.82
-14.29
-16.50
-18.64
-21.07
-24.15
-28.02
-32.49
-36.96
-40.56
-42.31
-41.44
-37.66
-31.23
-23.00
-14.11
-5.67
1.54
7.25
11.59
14.91
17.52
19.54
20.97
21.79
22.07
21.99
21.82
21.74
21.80
21.92
21.97
21.88
21.74
21.73
22.07
22.80
23.75
24.53
24.79
24.27
23.00
21.23
19.24
17.28
15.46
13.73
12.00
10.19
8.26
6.24
4.21
2.26
0.43
-1.35
-3.27
-5.57
-8.50
-12.24
-16.74
-21.78
-26.85
-31.26
-34.20
-34.93
-33.03
-28.58
-22.21
-14.88
-7.64
-1.28
3.75
7.34
9.56
10.59
10.65
10.08
9.27
8.60
8.31
8.47
8.95
9.59
10.26
10.93
11.60
12.23
12.70
12.88
12.69
12.17
11.47
10.75
10.05
9.34
8.41
7.09
5.26
2.94
0.30
-2.43
-5.00
-7.24
-9.11
-10.71
-12.27
-14.11
-16.55
-19.83
-24.06
-29.06
-34.35
-39.18
-42.66
-43.91
-42.41
-38.12
-31.58
-23.79
-15.83
-8.63
-2.69
1.94
5.47
8.26
10.54
12.40
13.79
14.77
15.41
15.90
16.45
17.17
18.08
19.14
20.25
21.38
22.51
23.61
24.63
25.45
25.94
25.95
25.39
24.26
22.62
20.51
18.01
15.16
11.96
8.46
4.75
0.99
-2.63
-5.98
-9.08
-12.10
-15.34
-19.16
-23.79
-29.17
-34.88
-40.15
-44.04
-45.71
-44.65
-40.87
-34.95
-27.78
-20.34
-13.38
-7.32
-2.22
2.08
5.75
8.91
11.51
13.52
14.87
15.62
15.88
15.80
15.49
15.05
14.53
14.06
13.77
13.79
14.21
14.95
15.82
16.59
17.01
16.95
16.43
15.57
14.51
13.36
12.11
10.68
8.97
6.93
4.61
2.14
-0.34
-2.75
-5.18
-7.83
-10.95
-14.78
-19.41
-24.74
-30.38
-35.65
-39.65
-41.48
-40.49
-36.59
-30.31
-22.67
-14.80
-7.63
-1.65
3.08
6.80
9.78
12.24
14.22
15.72
16.76
17.34
17.55
17.54
17.47
17.55
17.94
18.74
19.87
21.11
22.15
22.76
22.86
22.60
22.22
21.92
21.66
21.20
20.17
18.33
15.73
12.70
9.67
6.98
4.67
2.48
-0.02
-3.24
-7.48
-12.78
-18.96
-25.62
-32.12
-37.70
-41.51
-42.95
-41.76
-38.21
-32.98
-27.02
-21.20
-16.14
-12.14
-9.11
-6.83
-5.04
-3.65
-2.70
-2.32
-2.49
-2.99
-3.33
-2.99
-1.60
0.86
4.06
7.54
10.83
13.68
16.01
17.85
19.18
19.90
19.99
19.48
18.56
17.51
16.53
15.73
15.05
14.40
13.67
12.83
11.86
10.68
9.12
6.89
3.66
-0.75
-6.25
-12.31
-18.08
-22.54
-24.78
-24.23
-20.89
-15.26
-8.22
-0.71
6.48
12.88
18.41
23.19
27.45
31.30
34.69
37.38
39.06
39.39
38.21
35.59
31.90
27.71
23.69
20.42
18.23
17.16
16.97
17.22
17.46
17.25
16.34
14.60
12.02
8.72
4.81
0.45
-4.22
-9.05
-13.94
-18.71
-23.25
-27.45
-31.21
-34.45
-37.16
-39.35
-41.25
-43.21
-45.59
-48.66
-52.30
-55.93
-58.67
-59.57
-58.01
-53.94
-47.86
-40.59
-32.98
-25.60
-18.67
-12.17
-6.02
-0.27
4.88
9.19
12.54
15.02
16.91
18.54
20.11
21.65
22.98
23.90
24.40
24.64
24.97
25.70
26.92
28.45
29.89
30.83
31.08
30.66
29.81
28.77
27.61
26.18
24.21
21.43
17.83
13.62
9.27
5.22
1.78
-1.03
-3.40
-5.66
-8.13
-11.04
-14.53
-18.65
-23.33
-28.26
-32.85
-36.30
-37.74
-36.59
-32.77
-26.79
-19.56
-12.09
-5.18
0.76
5.66
9.62
12.85
15.47
17.63
19.50
21.22
22.87
24.44
25.85
26.94
27.63
27.90
27.80
27.40
26.74
25.86
24.81
23.71
22.66
21.75
20.91
19.90
18.40
16.05
12.76
8.67
4.22
-0.05
-3.69
-6.54
-8.68
-10.36
-11.87
-13.35
-14.85
-16.47
-18.37
-20.72
-23.57
-26.60
-29.07
-30.11
-28.99
-25.51
-20.11
-13.65
-7.14
-1.37
3.31
6.88
9.53
11.50
12.86
13.63
13.79
13.39
12.62
11.74
11.05
10.68
10.69
10.93
11.22
11.41
11.41
11.26
11.01
10.63
10.07
9.22
8.01
6.42
4.48
2.24
-0.23
-2.90
-5.71
-8.58
-11.42
-14.11
-16.57
-18.86
-21.07
-23.34
-25.86
-28.78
-32.20
-36.06
-40.14
-43.97
-46.85
-48.06
-47.02
-43.54
-37.87
-30.70
-22.86
-15.13
-8.02
-1.80
3.52
8.01
11.74
14.77
17.14
18.86
19.99
20.58
20.76
20.69
20.53
20.38
20.33
20.32
20.30
20.28
20.27
20.30
20.29
20.00
19.17
17.60
15.30
12.52
9.58
6.73
4.03
1.34
-1.48
-4.43
-7.36
-10.01
-12.24
-14.11
-15.90
-17.95
-20.54
-23.74
-27.49
-31.63
-35.92
-39.97
-43.25
-45.07
-44.80
-42.11
-37.10
-30.40
-22.92
-15.54
-8.87
-3.13
1.80
6.14
10.07
13.61
16.66
19.09
20.88
22.15
23.10
23.91
24.70
25.50
26.26
26.92
27.48
27.94
28.31
28.59
28.76
28.76
28.52
27.98
27.06
25.75
24.05
22.09
20.05
18.15
16.49
15.09
13.76
12.27
10.44
8.11
5.26
1.85
-2.20
-6.98
-12.59
-18.94
-25.62
-31.98
-37.16
-40.29
-40.79
-38.53
-33.93
-27.82
-21.27
-15.20
-10.23
-6.48
-3.75
-1.67
0.10
1.73
3.26
4.67
5.94
7.07
8.10
9.03
9.86
10.62
11.37
12.20
13.19
14.34
15.58
16.71
17.42
17.42
16.53
14.75
12.32
9.61
7.02
4.78
2.91
1.29
-0.27
-1.90
-3.68
-5.67
-7.99
-10.82
-14.33
-18.59
-23.32
-27.94
-31.60
-33.44
-32.88
-29.86
-24.91
-18.90
-12.78
-7.17
-2.29
1.96
5.80
9.25
12.13
14.10
14.98
14.79
13.91
12.81
11.94
11.54
11.55
11.80
12.07
12.23
12.27
12.23
12.06
11.64
10.88
9.70
8.19
6.49
4.75
2.99
1.12
-1.04
-3.61
-6.59
-9.82
-13.08
-16.23
-19.22
-22.09
-25.00
-28.08
-31.50
-35.32
-39.46
-43.60
-47.10
-49.21
-49.19
-46.67
-41.75
-35.03
-27.36
-19.54
-12.14
-5.36
0.79
6.33
11.19
15.27
18.46
20.79
22.41
23.55
24.38
24.97
25.31
25.43
25.39
25.34
25.44
25.71
26.02
26.12
25.76
24.79
23.24
21.21
18.84
16.21
13.33
10.23
6.97
3.69
0.53
-2.36
-4.94
-7.25
-9.34
-11.32
-13.27
-15.31
-17.60
-20.33
-23.62
-27.45
-31.53
-35.30
-37.96
-38.70
-37.01
-32.82
-26.63
-19.34
-11.98
-5.40
-0.02
4.18
7.54
10.46
13.26
16.08
18.83
21.39
23.60
25.43
26.87
28.04
28.99
29.77
30.36
30.72
30.88
30.93
31.00
31.18
31.42
31.53
31.15
29.91
27.59
24.22
20.05
15.55
11.18
7.30
4.06
1.36
-1.07
-3.50
-6.13
-9.07
-12.33
-15.87
-19.59
-23.23
-26.37
-28.40
-28.76
-27.16
-23.71
-18.91
-13.45
-7.96
-2.81
1.87
6.08
9.82
12.96
15.32
16.68
16.92
16.11
14.47
12.39
10.34
8.68
7.64
7.19
7.13
7.17
7.18
7.04
6.75
6.28
5.49
4.21
2.31
-0.18
-3.03
-5.90
-8.46
-10.54
-12.15
-13.49
-14.82
-16.41
-18.49
-21.18
-24.50
-28.32
-32.27
-35.75
-37.96
-38.15
-35.88
-31.20
-24.67
-17.27
-9.99
-3.55
1.73
5.98
9.51
12.60
15.31
17.47
18.85
19.36
19.11
18.42
17.68
17.11
16.71
16.29
15.64
14.61
13.30
11.97
10.89
10.21
9.80
9.32
8.37
6.60
3.90
0.47
-3.35
-7.09
-10.41
-13.16
-15.45
-17.56
-19.82
-22.52
-25.82
-29.74
-34.15
-38.76
-43.02
-46.23
-47.63
-46.60
-42.96
-37.07
-29.74
-21.94
-14.52
-7.96
-2.34
2.50
6.82
10.74
14.26
17.28
19.70
21.46
22.56
23.12
23.27
23.15
22.90
22.62
22.37
22.14
21.93
21.73
21.54
21.30
20.94
20.34
19.40
18.07
16.30
14.19
11.87
9.47
7.15
4.99
3.04
1.33
-0.23
-1.80
-3.64
-6.07
-9.36
-13.61
-18.68
-24.12
-29.26
-33.33
-35.57
-35.54
-33.15
-28.71
-22.86
-16.33
-9.78
-3.63
1.93
6.87
11.18
14.82
17.71
19.83
21.27
22.24
22.95
23.60
24.23
24.83
25.34
25.73
25.99
26.14
26.17
26.06
25.76
25.16
24.07
22.25
19.45
15.64
11.06
6.26
1.87
-1.56
-3.88
-5.36
-6.53
-7.92
-9.87
-12.42
-15.49
-18.93
-22.59
-26.23
-29.43
-31.52
-31.81
-29.82
-25.59
-19.64
-12.83
-6.05
0.06
5.26
9.54
13.01
15.67
17.43
18.19
18.03
17.20
16.10
15.11
14.41
13.96
13.51
12.79
11.72
10.43
9.17
8.21
7.66
7.34
6.91
5.95
4.26
1.84
-1.02
-3.96
-6.64
-8.90
-10.85
-12.78
-15.09
-18.14
-22.09
-26.76
-31.57
-35.72
-38.30
-38.64
-36.43
-31.93
-25.78
-18.84
-11.92
-5.57
0.00
4.79
8.90
12.37
15.17
17.18
18.33
18.66
18.41
17.85
17.23
16.70
16.26
15.85
15.45
15.06
14.71
14.38
13.98
13.32
12.22
10.50
8.16
5.26
1.99
-1.41
-4.77
-7.94
-10.93
-13.78
-16.66
-19.70
-23.07
-26.81
-30.84
-34.91
-38.45
-40.73
-40.94
-38.56
-33.52
-26.30
-17.83
-9.13
-1.01
6.17
12.40
17.92
22.93
27.44
31.29
34.25
36.17
37.11
37.38
37.31
37.20
37.18
37.14
36.92
36.37
35.44
34.14
32.54
30.61
28.22
25.20
21.36
16.65
11.17
5.12
-1.17
-7.43
-13.37
-18.82
-23.69
-28.03
-32.01
-35.90
-40.05
-44.72
-49.93
-55.27
-59.87
-62.60
-62.45
-58.92
-52.29
-43.57
-34.15
-25.31
-17.82
-11.86
-7.12
-3.09
0.64
4.27
7.76
10.95
13.64
15.74
17.19
18.06
18.49
18.66
18.72
18.82
18.98
19.15
19.25
19.17
18.90
18.44
17.79
16.88
15.63
13.94
11.78
9.32
6.78
4.44
2.47
0.86
-0.54
-1.95
-3.61
-5.64
-8.16
-11.17
-14.67
-18.55
-22.49
-25.99
-28.31
-28.70
-26.59
-21.84
-14.85
-6.49
2.15
10.10
16.79
22.08
26.18
29.43
32.11
34.42
36.48
38.34
39.96
41.04
40.92
38.73
33.62
25.23
13.96
0.98
-12.06
-23.53
-32.29
-37.90
-40.54
-40.81
-39.40
-36.93
-33.92
-30.85
-28.16
-26.15
-24.92
-24.33
-24.10
-23.95
-23.84
-24.00
-24.82
-26.65
-29.50
-32.95
-36.21
-38.27
-38.30
-35.86
-31.10
-24.65
-17.43
-10.33
-4.01
1.27
5.61
9.22
12.35
15.08
17.37
19.10
20.13
20.46
20.23
19.67
19.07
18.66
18.53
18.58
18.62
18.48
18.13
17.74
17.51
17.52
17.64
17.51
16.71
15.02
12.52
9.54
6.56
3.85
1.49
-0.68
-2.97
-5.64
-8.92
-12.96
-17.83
-23.41
-29.31
-34.88
-39.23
-41.53
-41.23
-38.21
-32.85
-25.87
-18.10
-10.35
-3.19
3.03
8.19
12.36
15.67
18.23
20.04
21.09
21.41
21.18
20.76
20.49
20.60
21.04
21.57
21.84
21.67
21.09
20.33
19.60
18.98
18.34
17.38
15.83
13.54
10.59
7.21
3.76
0.54
-2.25
-4.54
-6.48
-8.29
-10.30
-12.78
-15.91
-19.69
-23.93
-28.18
-31.77
-33.94
-33.94
-31.35
-26.22
-19.14
-11.10
-3.21
3.65
9.03
12.93
15.62
17.46
18.71
19.48
19.86
19.96
19.98
20.14
20.57
21.26
22.02
22.57
22.69
22.32
21.61
20.79
20.10
19.61
19.19
18.53
17.35
15.48
12.95
9.98
6.90
3.96
1.29
-1.15
-3.62
-6.41
-9.83
-14.00
-18.78
-23.63
-27.82
-30.47
-30.91
-28.89
-24.61
-18.66
-11.86
-4.94
1.55
7.26
12.05
15.89
18.72
20.53
21.31
21.16
20.30
19.07
17.75
16.60
15.71
15.08
14.67
14.43
14.35
14.41
14.49
14.39
13.87
12.74
10.92
8.57
5.86
3.04
0.23
-2.55
-5.36
-8.26
-11.39
-14.85
-18.70
-22.90
-27.08
-30.59
-32.59
-32.30
-29.28
-23.68
-16.16
-7.73
0.62
8.19
14.64
19.94
24.22
27.55
29.94
31.36
31.84
31.48
30.53
29.24
27.86
26.52
25.19
23.74
21.99
19.79
17.14
14.15
11.01
7.89
4.78
1.48
-2.32
-6.89
-12.26
-18.13
-23.96
-29.17
-33.42
-36.80
-39.76
-42.94
-46.91
-51.89
-57.68
-63.62
-68.76
-72.02
-72.51
-69.77
-63.90
-55.58
-45.88
-35.91
-26.59
-18.37
-11.34
-5.32
-0.06
4.65
8.87
12.63
15.88
18.59
20.73
22.30
23.34
23.93
24.18
24.17
23.95
23.58
23.09
22.51
21.90
21.29
20.68
19.97
19.05
17.75
15.97
13.63
10.77
7.56
4.25
1.09
-1.77
-4.36
-6.92
-9.80
-13.37
-17.76
-22.90
-28.42
-33.73
-38.06
-40.64
-40.81
-38.20
-32.92
-25.56
-17.03
-8.31
-0.18
6.96
13.08
18.39
23.10
27.33
31.02
34.00
36.12
37.37
37.85
37.75
37.29
36.62
35.87
35.15
34.60
34.35
34.51
35.04
35.71
36.20
36.13
35.30
33.76
31.78
29.70
27.71
25.80
23.73
21.16
17.84
13.79
9.24
4.54
0.04
-4.02
-7.58
-10.72
-13.65
-16.66
-19.93
-23.52
-27.16
-30.21
-31.89
-31.42
-28.42
-23.00
-15.76
-7.54
0.83
8.74
15.89
22.14
27.48
31.90
35.31
37.68
38.99
39.34
39.02
38.36
37.72
37.29
37.06
36.84
36.41
35.59
34.34
32.73
30.82
28.59
25.96
22.81
19.09
14.88
10.26
5.38
0.30
-4.96
-10.42
-16.10
-21.99
-28.06
-34.22
-40.36
-46.39
-52.39
-58.51
-64.97
-71.81
-78.66
-84.68
-88.69
-89.56
-86.69
-80.24
-71.07
-60.46
-49.55
-39.06
-29.27
-20.18
-11.73
-4.03
2.71
8.35
12.90
16.58
19.70
22.50
25.07
27.36
29.18
30.43
31.03
31.01
30.45
29.41
27.96
26.14
23.98
21.54
18.92
16.15
13.20
9.95
6.20
1.78
-3.28
-8.77
-14.27
-19.39
-23.87
-27.73
-31.27
-34.97
-39.25
-44.35
-50.21
-56.34
-61.96
-66.10
-67.79
-66.40
-61.85
-54.58
-45.53
-35.81
-26.35
-17.74
-10.19
-3.61
2.11
7.07
11.24
14.53
16.88
18.36
19.15
19.53
19.79
20.15
20.69
21.32
21.90
22.35
22.63
22.78
22.79
22.51
21.74
20.32
18.18
15.50
12.53
9.46
6.34
3.09
-0.40
-4.12
-7.91
-11.54
-14.82
-17.76
-20.55
-23.51
-26.93
-31.00
-35.66
-40.59
-45.19
-48.60
-49.95
-48.52
-44.02
-36.77
-27.59
-17.65
-8.11
0.14
6.73
11.74
15.55
18.65
21.33
23.70
25.71
27.25
28.30
29.00
29.54
30.13
30.83
31.54
32.08
32.30
32.19
31.80
31.24
30.48
29.44
27.94
25.89
23.33
20.40
17.33
14.31
11.47
8.82
6.33
3.87
1.31
-1.56
-4.92
-8.89
-13.56
-18.83
-24.45
-29.91
-34.54
-37.57
-38.34
-36.49
-32.10
-25.72
-18.22
-10.62
-3.70
2.04
6.42
9.56
11.65
12.89
13.41
13.32
12.73
11.80
10.82
10.06
9.73
9.84
10.26
10.70
10.97
11.00
10.88
10.77
10.77
10.75
10.48
9.61
7.92
5.40
2.23
-1.24
-4.66
-7.81
-10.60
-13.20
-15.93
-19.14
-23.17
-28.06
-33.47
-38.67
-42.68
-44.56
-43.67
-39.92
-33.74
-25.97
-17.55
-9.31
-1.81
4.63
9.91
14.00
16.95
18.82
19.77
20.02
19.88
19.64
19.60
19.94
20.67
21.61
22.45
22.82
22.56
21.69
20.48
19.29
18.38
17.70
16.94
15.59
13.27
9.89
5.67
1.11
-3.33
-7.33
-10.84
-14.02
-17.15
-20.52
-24.38
-28.88
-33.99
-39.43
-44.60
-48.63
-50.54
-49.57
-45.43
-38.46
-29.60
-20.05
-10.92
-2.94
3.68
9.12
13.67
17.57
20.80
23.27
24.86
25.60
25.74
25.58
25.40
25.34
25.45
25.62
25.76
25.75
25.50
24.94
24.07
22.92
21.54
19.96
18.14
15.98
13.42
10.44
7.17
3.78
0.48
-2.61
-5.49
-8.21
-10.92
-13.78
-16.99
-20.75
-25.20
-30.18
-35.16
-39.23
-41.31
-40.52
-36.59
-29.93
-21.53
-12.55
-3.92
3.78
10.43
16.11
20.94
24.95
28.11
30.42
31.90
32.64
32.77
32.45
31.89
31.30
30.86
30.61
30.51
30.44
30.33
30.21
30.16
30.20
30.25
30.10
29.49
28.21
26.23
23.65
20.66
17.49
14.27
11.10
7.99
4.87
1.65
-1.87
-5.87
-10.51
-15.80
-21.49
-27.04
-31.67
-34.47
-34.69
-31.98
-26.56
-19.16
-10.83
-2.65
4.54
10.26
14.39
17.03
18.28
18.26
17.14
15.25
13.07
11.19
10.08
9.90
10.44
11.17
11.54
11.22
10.25
9.08
8.34
8.54
9.88
12.13
14.72
16.93
18.14
17.97
16.37
13.53
9.77
5.38
0.59
-4.49
-9.83
-15.44
-21.35
-27.59
-34.08
-40.58
-46.58
-51.26
-53.65
-52.89
-48.57
-40.97
-31.10
-20.40
-10.32
-1.82
4.79
9.79
13.77
17.25
20.49
23.47
26.06
28.18
29.96
31.61
33.41
35.51
37.90
40.42
42.85
45.04
46.96
48.71
50.43
52.25
54.22
56.28
58.25
59.85
60.69
60.21
57.76
52.63
44.30
32.64
18.02
1.30
-16.37
-33.87
-50.31
-65.23
-78.48
-90.14
-100.15
-108.26
-113.89
-116.29
-114.73
-108.86
-98.89
-85.61
-70.30
-54.43
-39.34
-26.00
-14.88
-5.98
1.01
6.53
10.98
14.64
17.65
20.07
21.94
23.33
24.39
25.28
26.09
26.82
27.35
27.58
27.50
27.19
26.76
26.27
25.64
24.72
23.30
21.22
18.49
15.18
11.42
7.29
2.90
-1.61
-6.03
-10.10
-13.68
-16.85
-19.96
-23.52
-27.92
-33.27
-39.16
-44.74
-48.91
-50.72
-49.50
-45.24
-38.40
-29.83
-20.53
-11.41
-3.19
3.66
8.92
12.56
14.72
15.65
15.69
15.20
14.51
13.90
13.55
13.51
13.79
14.30
14.93
15.51
15.86
15.80
15.18
14.01
12.44
10.70
8.95
7.22
5.26
2.76
-0.52
-4.52
-8.86
-13.03
-16.60
-19.45
-21.81
-24.12
-26.79
-30.07
-33.95
-38.27
-42.72
-46.80
-49.80
-50.88
-49.27
-44.58
-37.05
-27.52
-17.25
-7.40
1.27
8.54
14.58
19.71
24.12
27.81
30.69
32.66
33.77
34.20
34.16
33.86
33.47
33.07
32.74
32.51
32.38
32.29
32.05
31.45
30.29
28.50
26.22
23.72
21.28
19.02
16.91
14.72
12.21
9.21
5.71
1.79
-2.36
-6.56
-10.66
-14.54
-18.20
-21.86
-25.88
-30.70
-36.54
-43.13
-49.65
-54.82
-57.30
-56.20
-51.38
-43.46
-33.64
-23.19
-13.16
-4.14
3.70
10.43
16.21
21.10
25.05
28.00
29.96
31.08
31.63
31.95
32.23
32.52
32.70
32.59
32.11
31.37
30.59
30.06
29.88
29.92
29.84
29.29
28.03
26.11
23.79
21.46
19.43
17.80
16.42
15.00
13.26
11.06
8.46
5.68
2.96
0.42
-2.02
-4.56
-7.51
-11.12
-15.54
-20.82
-26.86
-33.27
-39.37
-44.18
-46.63
-45.94
-41.90
-35.06
-26.61
-17.93
-10.17
-3.98
0.60
3.94
6.50
8.64
10.55
12.21
13.61
14.73
15.61
16.30
16.91
17.53
18.24
19.10
20.11
21.22
22.37
23.47
24.44
25.22
25.71
25.78
25.31
24.21
22.50
20.26
17.58
14.58
11.29
7.76
4.15
0.64
-2.56
-5.43
-8.14
-11.10
-14.76
-19.44
-25.18
-31.61
-37.94
-43.19
-46.35
-46.71
-43.98
-38.49
-31.01
-22.65
-14.48
-7.34
-1.66
2.48
5.30
7.19
8.49
9.46
10.19
10.67
10.81
10.58
10.05
9.40
8.81
8.38
8.09
7.78
7.30
6.53
5.54
4.53
3.70
3.16
2.77
2.25
1.21
-0.59
-3.20
-6.44
-9.98
-13.52
-16.87
-19.97
-22.82
-25.49
-28.04
-30.63
-33.50
-36.90
-40.96
-45.43
-49.61
-52.44
-52.84
-50.07
-44.07
-35.54
-25.67
-15.71
-6.64
1.12
7.60
13.09
17.87
22.04
25.54
28.23
30.09
31.20
31.78
32.10
32.33
32.53
32.67
32.68
32.53
32.27
31.97
31.66
31.26
30.59
29.43
27.67
25.36
22.70
19.96
17.28
14.75
12.25
9.70
7.03
4.31
1.57
-1.13
-3.79
-6.42
-9.05
-11.75
-14.72
-18.25
-22.54
-27.59
-32.88
-37.40
-39.92
-39.38
-35.30
-28.04
-18.63
-8.42
1.36
9.91
16.93
22.47
26.74
29.89
31.99
33.13
33.43
33.08
32.33
31.32
30.06
28.51
26.64
24.54
22.40
20.40
18.67
17.18
15.77
14.24
12.44
10.24
7.63
4.63
1.40
-1.84
-4.78
-7.17
-8.88
-10.00
-10.85
-11.85
-13.40
-15.89
-19.50
-24.27
-29.96
-36.04
-41.69
-45.94
-47.95
-47.23
-43.83
-38.26
-31.39
-24.14
-17.33
-11.51
-6.96
-3.69
-1.58
-0.37
0.18
0.28
0.06
-0.42
-1.02
-1.56
-1.77
-1.37
-0.19
1.68
4.01
6.50
8.88
11.08
13.08
14.85
16.22
16.88
16.50
14.98
12.46
9.30
5.88
2.42
-1.08
-4.74
-8.64
-12.75
-17.00
-21.43
-26.20
-31.49
-37.30
-43.16
-48.13
-51.12
-51.23
-48.20
-42.49
-35.04
-26.93
-19.00
-11.72
-5.20
0.57
5.63
9.96
13.55
16.44
18.69
20.38
21.58
22.26
22.47
22.27
21.80
21.24
20.72
20.27
19.85
19.37
18.72
17.90
16.88
15.68
14.34
12.84
11.11
9.09
6.70
3.88
0.69
-2.81
-6.46
-10.11
-13.64
-16.99
-20.18
-23.36
-26.74
-30.52
-34.76
-39.27
-43.54
-46.75
-48.00
-46.59
-42.27
-35.33
-26.58
-17.05
-7.72
0.68
7.86
13.80
18.69
22.75
26.16
29.01
31.27
32.79
33.42
33.13
32.12
30.80
29.74
29.41
29.96
31.25
32.87
34.34
35.38
35.86
35.86
35.46
34.70
33.62
32.30
30.87
29.48
28.15
26.70
24.84
22.30
19.00
15.14
11.13
7.34
3.98
0.91
-2.19
-5.77
-10.15
-15.37
-21.12
-26.76
-31.43
-34.27
-34.62
-32.30
-27.65
-21.48
-14.86
-8.75
-3.82
-0.27
2.08
3.58
4.55
5.18
5.49
5.50
5.32
5.16
5.29
5.89
6.95
8.18
9.24
9.81
9.81
9.39
8.85
8.44
8.27
8.20
7.98
7.31
6.01
4.05
1.58
-1.18
-3.99
-6.72
-9.31
-11.79
-14.22
-16.69
-19.33
-22.31
-25.85
-30.08
-34.83
-39.57
-43.41
-45.36
-44.66
-41.16
-35.31
-28.07
-20.46
-13.24
-6.73
-0.89
4.45
9.36
13.74
17.43
20.29
22.28
23.55
24.28
24.63
24.72
24.57
24.24
23.76
23.19
22.61
22.02
21.37
20.55
19.42
17.85
15.83
13.44
10.85
8.27
5.81
3.47
1.09
-1.54
-4.57
-8.02
-11.78
-15.61
-19.31
-22.74
-25.96
-29.13
-32.53
-36.39
-40.76
-45.38
-49.66
-52.71
-53.65
-51.80
-46.97
-39.59
-30.52
-20.88
-11.65
-3.53
3.28
8.89
13.65
17.86
21.70
25.18
28.15
30.44
31.97
32.81
33.11
33.09
32.90
32.66
32.42
32.15
31.81
31.29
30.50
29.30
27.60
25.44
22.94
20.34
17.85
15.60
13.47
11.11
8.16
4.36
-0.18
-5.01
-9.52
-13.20
-15.91
-17.91
-19.65
-21.57
-23.94
-26.90
-30.57
-35.10
-40.47
-46.28
-51.59
-55.08
-55.54
-52.35
-45.79
-37.04
-27.55
-18.62
-10.98
-4.70
0.65
5.65
10.78
16.30
22.20
28.32
34.32
39.82
44.48
48.05
50.40
51.53
51.66
51.07
50.20
49.46
49.14
49.37
49.96
50.55
50.70
50.07
48.50
46.11
43.17
39.98
36.76
33.58
30.32
26.86
23.06
18.91
14.51
10.03
5.61
1.35
-2.80
-6.95
-11.27
-15.93
-21.04
-26.62
-32.58
-38.65
-44.35
-48.93
-51.56
-51.54
-48.63
-43.16
-36.02
-28.33
-21.13
-15.10
-10.50
-7.23
-5.04
-3.64
-2.79
-2.25
-1.80
-1.31
-0.67
0.08
0.85
1.62
2.43
3.38
4.55
6.00
7.66
9.49
11.36
13.13
14.64
15.69
16.06
15.68
14.51
12.62
10.14
7.20
3.96
0.57
-2.83
-6.08
-9.11
-11.92
-14.63
-17.43
-20.55
-24.13
-28.09
-32.00
-35.09
-36.34
-34.94
-30.52
-23.49
-14.93
-6.30
1.12
6.59
10.02
11.82
12.54
12.62
12.21
11.24
9.59
7.15
3.96
0.13
-4.17
-8.71
-13.24
-17.46
-21.00
-23.44
-24.45
-23.87
-21.87
-18.92
-15.70
-12.90
-10.99
-10.08
-9.97
-10.26
-10.62
-10.96
-11.41
-12.30
-13.90
-16.25
-19.16
-22.29
-25.25
-27.84
-30.10
-32.23
-34.52
-37.27
-40.70
-44.83
-49.36
-53.59
-56.45
-56.81
-53.85
-47.48
-38.44
-28.04
-17.69
-8.38
-0.45
6.24
12.05
17.24
21.80
25.62
28.65
30.95
32.78
34.34
35.75
36.96
37.87
38.33
38.27
37.76
36.91
35.94
35.02
34.27
33.70
33.17
32.51
31.53
30.13
28.30
26.16
23.84
21.42
18.93
16.29
13.42
10.31
7.08
3.89
0.90
-1.84
-4.49
-7.36
-10.85
-15.25
-20.62
-26.57
-32.30
-36.73
-38.84
-38.02
-34.30
-28.37
-21.26
-14.00
-7.27
-1.40
3.58
7.78
11.27
14.12
16.40
18.29
19.94
21.49
22.95
24.29
25.43
26.34
27.02
27.48
27.70
27.67
27.42
27.03
26.65
26.34
26.03
25.54
24.59
23.00
20.71
17.91
14.79
11.61
8.54
5.63
2.86
0.14
-2.69
-5.87
-9.65
-14.27
-19.75
-25.76
-31.64
-36.47
-39.43
-39.97
-38.06
-34.17
-29.07
-23.58
-18.33
-13.68
-9.65
-6.13
-2.99
-0.19
2.18
3.99
5.21
5.91
6.29
6.66
7.25
8.18
9.43
10.77
11.96
12.76
13.03
12.74
11.99
10.96
9.83
8.73
7.68
6.58
5.26
3.50
1.21
-1.59
-4.75
-8.07
-11.33
-14.44
-17.42
-20.37
-23.40
-26.69
-30.44
-34.82
-39.82
-45.06
-49.72
-52.68
-52.84
-49.56
-42.95
-33.94
-23.83
-13.97
-5.24
2.03
8.00
12.98
17.25
20.93
24.02
26.49
28.39
29.74
30.57
30.82
30.40
29.32
27.77
26.09
24.71
23.90
23.69
23.82
23.87
23.47
22.45
20.85
18.83
16.52
13.95
11.03
7.67
3.87
-0.20
-4.30
-8.14
-11.62
-14.70
-17.55
-20.37
-23.43
-26.92
-30.98
-35.52
-40.23
-44.55
-47.71
-48.93
-47.61
-43.57
-37.10
-28.94
-20.02
-11.23
-3.21
3.79
9.79
15.01
19.69
23.95
27.76
30.99
33.50
35.23
36.27
36.81
37.06
37.24
37.50
37.91
38.46
39.10
39.71
40.12
40.18
39.81
39.04
37.94
36.56
34.85
32.65
29.80
26.20
21.95
17.30
12.56
7.96
3.62
-0.56
-4.74
-9.14
-14.00
-19.44
-25.48
-31.86
-38.05
-43.20
-46.43
-47.10
-45.02
-40.61
-34.70
-28.31
-22.33
-17.23
-13.12
-9.85
-7.14
-4.84
-2.91
-1.38
-0.31
0.32
0.67
0.96
1.42
2.23
3.45
5.02
6.84
8.80
10.80
12.78
14.61
16.10
17.01
17.05
16.04
13.87
10.67
6.70
2.36
-1.96
-5.96
-9.51
-12.66
-15.58
-18.56
-21.88
-25.78
-30.33
-35.29
-40.09
-43.83
-45.59
-44.73
-41.17
-35.40
-28.31
-20.81
-13.50
-6.63
-0.14
6.05
11.85
16.97
21.08
23.85
25.14
25.02
23.70
21.55
19.03
16.60
14.65
13.44
13.00
13.21
13.89
14.84
15.93
17.04
18.01
18.61
18.51
17.42
15.19
11.86
7.74
3.30
-0.99
-4.78
-7.91
-10.49
-12.83
-15.36
-18.49
-22.45
-27.25
-32.60
-37.94
-42.51
-45.51
-46.24
-44.32
-39.88
-33.43
-25.79
-17.77
-10.00
-2.79
3.80
9.85
15.37
20.30
24.48
27.78
30.15
31.70
32.58
33.01
33.18
33.22
33.19
33.08
32.80
32.29
31.53
30.57
29.56
28.62
27.79
26.97
25.97
24.58
22.71
20.41
17.85
15.26
12.79
10.47
8.18
5.80
3.14
0.11
-3.41
-7.46
-12.01
-16.83
-21.48
-25.33
-27.65
-27.92
-25.91
-21.90
-16.56
-10.76
-5.30
-0.71
2.83
5.43
7.31
8.64
9.49
9.86
9.78
9.38
8.90
8.62
8.74
9.30
10.14
11.05
11.79
12.33
12.77
13.29
14.03
14.95
15.84
16.39
16.30
15.50
14.15
12.54
10.94
9.50
8.13
6.53
4.36
1.31
-2.77
-7.79
-13.43
-19.12
-24.16
-27.85
-29.66
-29.37
-27.16
-23.53
-19.13
-14.63
-10.50
-7.00
-4.22
-2.13
-0.64
0.36
0.98
1.32
1.47
1.52
1.46
1.29
1.02
0.71
0.48
0.45
0.71
1.23
1.90
2.45
2.59
2.03
0.56
-1.85
-5.08
-8.84
-12.75
-16.40
-19.50
-21.97
-24.03
-26.20
-29.05
-33.05
-38.20
-43.88
-48.94
-51.98
-51.79
-47.84
-40.43
-30.62
-19.80
-9.31
-0.02
7.71
13.94
18.95
22.94
26.06
28.30
29.64
30.10
29.77
28.76
27.22
25.26
23.03
20.66
18.32
16.21
14.47
13.21
12.38
11.84
11.34
10.59
9.35
7.44
4.85
1.68
-1.89
-5.64
-9.39
-13.04
-16.51
-19.77
-22.85
-25.83
-28.87
-32.15
-35.79
-39.70
-43.47
-46.42
-47.80
-46.94
-43.60
-37.95
-30.54
-22.11
-13.40
-4.97
2.81
9.77
15.85
21.01
25.26
28.58
30.94
32.33
32.81
32.55
31.81
30.89
30.00
29.18
28.38
27.47
26.39
25.15
23.84
22.49
21.05
19.44
17.59
15.51
13.23
10.82
8.23
5.36
2.12
-1.50
-5.33
-9.05
-12.29
-14.71
-16.17
-16.77
-16.95
-17.33
-18.57
-21.05
-24.61
-28.56
-31.77
-33.13
-31.86
-27.81
-21.36
-13.29
-4.46
4.29
12.32
19.16
24.52
28.40
31.04
32.86
34.28
35.61
36.86
37.88
38.40
38.22
37.35
35.95
34.27
32.57
31.01
29.62
28.40
27.33
26.43
25.70
25.18
24.83
24.64
24.55
24.52
24.51
24.48
24.39
24.20
23.85
23.34
22.72
22.10
21.59
21.25
21.00
20.62
19.82
18.39
16.38
14.17
12.49
12.15
13.83
17.76
23.63
30.73
38.28
45.67
52.63
59.22
65.52
71.50
76.91
81.40
84.78
87.19
89.20
91.59
95.08
100.02
106.26
113.27
120.42
127.31
133.93
140.75
148.41
157.53
168.42
180.94
194.35
207.27
217.56
222.61
219.84
207.48
185.20
154.35
117.54
77.71
37.17
-2.85
-42.06
-80.47
-117.75
-152.99
-184.89
-212.28
-234.57
-251.75
-264.22
-272.37
-276.36
-276.10
-271.51
-262.91
-251.06
-237.18
-222.48
-207.87
-193.71
-179.91
-166.27
-152.68
-139.28
-126.42
-114.41
-103.34
-93.14
-83.63
-74.73
-66.47
-58.97
-52.29
-46.44
-41.30
-36.74
-32.73
-29.28
-26.49
-24.55
-23.53
-23.41
-24.05
-25.20
-26.65
-28.25
-29.95
-31.76
-33.69
-35.79
-38.15
-41.05
-44.73
-49.29
-54.40
-59.18
-62.39
-62.83
-59.78
-53.35
-44.39
-34.19
-24.01
-14.72
-6.68
0.07
5.63
10.05
13.18
14.91
15.27
14.51
13.14
11.74
10.73
10.27
10.19
10.16
9.82
8.97
7.70
6.31
5.19
4.63
4.72
5.23
5.74
5.76
4.92
3.07
0.41
-2.72
-5.94
-8.95
-11.62
-14.08
-16.55
-19.30
-22.53
-26.30
-30.50
-34.76
-38.51
-40.99
-41.41
-39.25
-34.39
-27.24
-18.67
-9.73
-1.34
5.84
11.58
15.94
19.12
21.35
22.83
23.71
24.16
24.38
24.54
24.81
25.23
25.79
26.36
26.80
26.98
26.90
26.66
26.40
26.21
26.00
25.51
24.43
22.61
20.17
17.52
15.18
13.49
12.40
11.46
9.98
7.27
2.92
-3.05
-10.10
-17.22
-23.02
-26.11
-25.43
-20.67
-12.42
-2.08
8.62
18.12
25.48
30.51
33.54
35.12
35.65
35.32
34.20
32.42
30.28
28.18
26.46
25.31
24.74
24.70
25.16
26.17
27.62
29.15
29.97
29.08
25.58
19.08
9.88
-1.13
-12.74
-23.83
-33.60
-41.61
-47.74
-52.09
-55.01
-57.13
-59.27
-62.34
-66.92
-73.02
-79.90
-86.15
-90.04
-90.09
-85.53
-76.55
-64.25
-50.24
-36.16
-23.20
-11.90
-2.21
6.19
13.55
19.84
24.80
28.15
29.94
30.59
30.85
31.47
32.89
35.07
37.56
39.84
41.63
42.93
43.90
44.58
44.66
43.66
41.17
37.16
32.07
26.63
21.53
17.18
13.59
10.54
7.74
4.95
1.99
-1.33
-5.30
-10.11
-15.63
-21.34
-26.27
-29.33
-29.59
-26.71
-20.96
-13.28
-4.87
3.09
9.79
14.90
18.51
20.91
22.42
23.24
23.51
23.28
22.62
21.62
20.43
19.17
17.97
16.90
16.00
15.26
14.59
13.83
12.79
11.27
9.16
6.44
3.23
-0.22
-3.55
-6.40
-8.45
-9.66
-10.29
-10.96
-12.39
-15.17
-19.48
-24.90
-30.52
-35.13
-37.62
-37.23
-33.84
-27.84
-20.09
-11.55
-3.12
4.56
11.10
16.39
20.45
23.38
25.34
26.46
26.91
26.84
26.45
25.99
25.69
25.70
26.02
26.48
26.86
27.00
26.88
26.64
26.47
26.42
26.35
25.94
24.83
22.79
19.79
16.06
11.97
7.87
4.05
0.57
-2.66
-5.90
-9.42
-13.53
-18.38
-23.90
-29.72
-35.11
-39.07
-40.66
-39.21
-34.63
-27.44
-18.54
-8.95
0.51
9.35
17.32
24.26
30.05
34.56
37.72
39.66
40.58
40.76
40.47
39.91
39.18
38.36
37.48
36.56
35.68
34.89
34.25
33.77
33.36
32.89
32.20
31.10
29.52
27.42
24.85
21.90
18.72
15.45
12.26
9.26
6.51
3.98
1.56
-0.92
-3.62
-6.69
-10.25
-14.36
-18.94
-23.71
-28.12
-31.48
-33.08
-32.41
-29.43
-24.58
-18.64
-12.47
-6.74
-1.82
2.26
5.62
8.37
10.51
12.00
12.82
13.07
13.00
12.95
13.22
13.99
15.23
16.66
17.92
18.63
18.60
17.92
16.86
15.78
14.87
14.13
13.32
12.13
10.36
8.00
5.21
2.24
-0.70
-3.52
-6.24
-8.89
-11.56
-14.36
-17.42
-20.89
-24.82
-29.05
-33.14
-36.40
-38.10
-37.70
-35.07
-30.54
-24.84
-18.74
-12.87
-7.50
-2.65
1.75
5.76
9.31
12.23
14.41
15.89
16.85
17.54
18.18
18.84
19.51
20.05
20.36
20.40
20.27
20.10
20.05
20.22
20.56
20.95
21.20
21.15
20.72
19.83
18.50
16.72
14.50
11.80
8.64
4.98
0.84
-3.76
-8.83
-14.35
-20.24
-26.35
-32.38
-37.88
-42.26
-44.88
-45.25
-43.19
-38.87
-32.83
-25.81
-18.52
-11.54
-5.24
0.20
4.68
8.26
11.02
13.10
14.69
16.03
17.31
18.71
20.20
21.51
22.11
21.34
18.67
13.91
7.36
-0.27
-8.04
-15.17
-21.24
-26.20
-30.27
-33.65
-36.41
-38.43
-39.54
-39.65
-38.87
-37.49
-35.89
-34.45
-33.42
-32.98
-33.18
-34.00
-35.29
-36.63
-37.40
-36.78
-34.07
-28.84
-21.27
-12.01
-2.06
7.56
16.14
23.36
29.29
34.16
38.21
41.49
43.88
45.26
45.60
45.15
44.32
43.58
43.15
42.92
42.53
41.56
39.80
37.43
34.91
32.76
31.28
30.42
29.81
29.00
27.62
25.50
22.68
19.30
15.48
11.35
7.01
2.61
-1.69
-5.73
-9.50
-13.13
-16.95
-21.28
-26.31
-31.81
-37.11
-41.24
-43.30
-42.78
-39.74
-34.87
-29.13
-23.35
-18.01
-13.14
-8.54
-4.01
0.41
4.45
7.75
10.03
11.24
11.54
11.30
10.89
10.63
10.76
11.37
12.38
13.54
14.46
14.74
14.13
12.54
10.18
7.34
4.32
1.35
-1.40
-3.81
-5.75
-7.04
-7.62
-7.52
-6.89
-6.00
-5.10
-4.48
-4.41
-5.19
-7.03
-9.97
-13.66
-17.39
-20.21
-21.21
-19.91
-16.39
-11.25
-5.41
0.30
5.38
9.70
13.42
16.64
19.31
21.20
22.05
21.81
20.71
19.22
17.84
16.89
16.41
16.23
16.11
15.88
15.58
15.37
15.38
15.70
16.30
17.00
17.63
17.98
17.86
17.09
15.49
12.93
9.30
4.67
-0.78
-6.74
-12.80
-18.65
-24.06
-29.00
-33.49
-37.51
-40.91
-43.32
-44.25
-43.27
-40.21
-35.18
-28.61
-21.08
-13.16
-5.25
2.45
9.85
16.80
23.07
28.30
32.18
34.65
36.02
36.88
37.98
39.84
42.66
46.29
50.37
54.49
58.39
61.88
64.91
67.48
69.53
71.03
71.91
72.02
71.25
69.47
66.65
62.91
58.46
53.53
48.30
42.93
37.55
32.36
27.50
22.98
18.51
13.64
7.94
1.40
-5.46
-11.63
-16.05
-18.03
-17.56
-15.26
-12.12
-9.06
-6.70
-5.29
-4.82
-5.14
-6.10
-7.49
-8.99
-10.26
-10.92
-10.75
-9.78
-8.32
-6.85
-5.91
-5.94
-7.19
-9.69
-13.18
-17.25
-21.37
-25.03
-27.89
-29.86
-31.11
-32.01
-32.95
-34.30
-36.30
-39.03
-42.35
-45.95
-49.28
-51.61
-52.25
-50.67
-46.75
-40.87
-33.80
-26.48
-19.80
-14.34
-10.35
-7.69
-6.04
-5.08
-4.53
-4.26
-4.19
-4.17
-3.91
-3.12
-1.66
0.35
2.48
4.20
5.07
4.89
3.79
1.99
-0.23
-2.70
-5.31
-7.93
-10.46
-12.86
-15.30
-18.18
-21.93
-26.76
-32.47
-38.38
-43.49
-46.82
-47.72
-45.99
-41.88
-35.97
-28.96
-21.54
-14.34
-7.81
-2.20
2.42
6.16
9.18
11.63
13.49
14.63
14.91
14.32
13.04
11.45
9.95
8.77
7.92
7.19
6.32
5.19
3.85
2.40
0.96
-0.49
-2.03
-3.75
-5.64
-7.60
-9.53
-11.40
-13.36
-15.61
-18.28
-21.36
-24.60
-27.57
-29.70
-30.46
-29.42
-26.46
-21.82
-16.09
-10.06
-4.46
0.26
4.06
7.17
9.89
12.39
14.61
16.31
17.29
17.48
17.01
16.15
15.18
14.33
13.69
13.20
12.75
12.26
11.68
11.01
10.28
9.43
8.34
6.85
4.82
2.21
-0.86
-4.18
-7.53
-10.88
-14.29
-17.85
-21.34
-24.12
-25.18
-23.61
-18.92
-11.49
-2.49
6.54
14.26
19.97
23.76
26.18
27.82
28.95
29.42
28.92
27.24
24.55
21.31
18.11
15.45
13.58
12.46
11.87
11.59
11.46
11.34
11.09
10.51
9.32
7.34
4.56
1.14
-2.63
-6.52
-10.44
-14.48
-18.88
-23.86
-29.56
-35.89
-42.52
-48.87
-54.18
-57.69
-58.84
-57.36
-53.45
-47.61
-40.53
-32.89
-25.22
-17.87
-10.98
-4.62
1.17
6.30
10.64
14.06
16.50
18.02
18.80
19.06
19.06
18.94
18.76
18.54
18.29
18.07
17.86
17.66
17.27
16.50
15.16
13.14
10.54
7.54
4.43
1.40
-1.42
-4.03
-6.52
-9.03
-11.80
-15.08
-18.99
-23.39
-27.77
-31.27
-32.98
-32.23
-29.00
-23.82
-17.65
-11.40
-5.66
-0.54
4.13
8.58
12.84
16.76
20.10
22.66
24.35
25.21
25.35
24.93
24.09
23.02
21.87
20.75
19.78
18.98
18.43
18.21
18.34
18.72
19.12
19.15
18.44
16.78
14.20
10.99
7.56
4.28
1.33
-1.32
-3.88
-6.56
-9.58
-13.01
-16.83
-20.91
-25.00
-28.77
-31.75
-33.44
-33.45
-31.64
-28.18
-23.48
-18.09
-12.51
-7.04
-1.86
2.96
7.39
11.35
14.77
17.56
19.68
21.18
22.11
22.55
22.62
22.44
22.11
21.74
21.39
21.07
20.81
20.54
20.23
19.82
19.30
18.72
18.12
17.47
16.65
15.41
13.48
10.73
7.28
3.50
-0.04
-2.89
-4.88
-6.19
-7.26
-8.64
-10.74
-13.77
-17.66
-22.08
-26.52
-30.40
-33.13
-34.21
-33.34
-30.49
-25.94
-20.17
-13.78
-7.36
-1.29
4.24
9.19
13.53
17.21
20.08
22.04
23.15
23.68
24.03
24.55
25.37
26.38
27.29
27.88
28.09
28.06
27.97
27.93
27.83
27.54
26.93
26.02
24.96
23.94
23.02
22.09
20.91
19.13
16.50
12.86
8.22
2.72
-3.46
-10.09
-16.93
-23.79
-30.50
-36.91
-42.91
-48.24
-52.53
-55.28
-56.03
-54.54
-50.93
-45.62
-39.25
-32.44
-25.58
-18.90
-12.45
-6.28
-0.54
4.56
8.81
12.06
14.35
15.80
16.63
17.07
17.32
17.51
17.75
18.12
18.66
19.37
20.21
21.03
21.67
21.97
21.81
21.21
20.31
19.27
18.30
17.44
16.58
15.48
13.87
11.57
8.66
5.39
2.07
-1.03
-3.86
-6.54
-9.26
-12.25
-15.66
-19.56
-23.97
-28.76
-33.57
-37.81
-40.73
-41.65
-40.22
-36.58
-31.26
-25.06
-18.71
-12.65
-7.04
-1.81
3.10
7.65
11.71
15.08
17.63
19.38
20.45
21.03
21.29
21.34
21.21
20.92
20.48
19.99
19.58
19.38
19.45
19.70
19.92
19.85
19.24
18.00
16.22
14.15
12.09
10.20
8.49
6.77
4.80
2.43
-0.30
-3.19
-6.00
-8.58
-10.91
-13.18
-15.64
-18.55
-22.06
-26.20
-30.84
-35.63
-40.05
-43.47
-45.27
-45.04
-42.63
-38.25
-32.35
-25.55
-18.49
-11.68
-5.49
-0.08
4.52
8.36
11.51
13.96
15.71
16.75
17.18
17.19
17.04
16.97
17.17
17.69
18.47
19.42
20.36
21.13
21.52
21.38
20.65
19.46
18.06
16.74
15.68
14.85
14.02
12.86
11.12
8.73
5.81
2.59
-0.74
-4.07
-7.41
-10.78
-14.18
-17.65
-21.23
-25.06
-29.31
-33.99
-38.88
-43.44
-46.92
-48.58
-47.93
-44.89
-39.83
-33.41
-26.40
-19.49
-13.16
-7.69
-3.14
0.54
3.53
6.01
8.13
10.02
11.73
13.24
14.51
15.54
16.36
17.07
17.76
18.49
19.28
20.05
20.72
21.21
21.48
21.52
21.34
20.95
20.34
19.46
18.24
16.64
14.60
12.15
9.32
6.20
2.92
-0.41
-3.76
-7.15
-10.71
-14.61
-18.99
-23.90
-29.16
-34.37
-38.90
-42.03
-43.17
-41.96
-38.47
-33.12
-26.56
-19.49
-12.53
-6.09
-0.44
4.35
8.22
11.21
13.40
14.89
15.85
16.47
16.90
17.31
17.76
18.21
18.63
18.96
19.19
19.37
19.58
19.82
20.03
20.01
19.59
18.67
17.29
15.58
13.70
11.67
9.46
6.95
4.08
0.90
-2.41
-5.71
-8.97
-12.36
-16.15
-20.59
-25.64
-30.98
-35.96
-39.81
-41.89
-41.83
-39.57
-35.40
-29.73
-23.12
-16.12
-9.21
-2.77
2.95
7.83
11.83
14.95
17.24
18.74
19.51
19.69
19.48
19.11
18.85
18.86
19.16
19.70
20.31
20.84
21.25
21.53
21.75
21.89
21.82
21.27
19.96
17.75
14.69
11.12
7.42
3.94
0.74
-2.31
-5.51
-9.19
-13.53
-18.48
-23.88
-29.42
-34.77
-39.54
-43.24
-45.29
-45.16
-42.58
-37.69
-31.11
-23.75
-16.47
-9.88
-4.17
0.75
5.07
8.86
12.00
14.37
15.87
16.62
16.92
17.10
17.40
17.86
18.39
18.78
18.85
18.53
17.84
16.93
15.93
14.91
13.86
12.61
10.95
8.75
6.01
2.95
-0.17
-3.09
-5.71
-8.18
-10.75
-13.80
-17.56
-22.11
-27.26
-32.50
-37.13
-40.36
-41.49
-40.15
-36.43
-30.84
-24.11
-16.96
-9.90
-3.19
3.09
8.78
13.67
17.50
20.14
21.68
22.42
22.75
22.97
23.23
23.50
23.74
23.95
24.17
24.47
24.82
25.12
25.20
24.89
24.13
22.89
21.17
18.98
16.33
13.25
9.84
6.29
2.79
-0.45
-3.38
-6.13
-9.04
-12.46
-16.69
-21.69
-27.10
-32.24
-36.29
-38.56
-38.63
-36.43
-32.26
-26.67
-20.27
-13.62
-7.16
-1.10
4.44
9.45
13.88
17.65
20.65
22.82
24.18
24.87
25.07
25.00
24.83
24.66
24.54
24.47
24.44
24.43
24.46
24.55
24.70
24.84
24.86
24.57
23.79
22.38
20.30
17.61
14.50
11.19
7.91
4.74
1.69
-1.39
-4.70
-8.45
-12.81
-17.84
-23.42
-29.22
-34.69
-39.11
-41.78
-42.19
-40.19
-36.11
-30.60
-24.44
-18.31
-12.59
-7.45
-2.92
0.97
4.09
6.34
7.73
8.50
8.97
9.51
10.24
11.08
11.80
12.26
12.47
12.70
13.24
14.24
15.62
17.01
17.88
17.81
16.60
14.42
11.70
8.94
6.52
4.55
2.80
0.88
-1.60
-4.80
-8.64
-12.94
-17.50
-22.29
-27.27
-32.32
-37.03
-40.70
-42.58
-42.08
-39.10
-34.02
-27.65
-20.82
-14.22
-8.15
-2.61
2.51
7.33
11.77
15.65
18.75
20.90
22.14
22.64
22.71
22.67
22.73
22.99
23.47
24.09
24.79
25.49
26.12
26.58
26.78
26.64
26.13
25.27
24.12
22.77
21.24
19.50
17.52
15.21
12.50
9.34
5.68
1.45
-3.43
-9.08
-15.60
-22.94
-30.87
-38.89
-46.22
-52.01
-55.53
-56.44
-54.90
-51.45
-46.82
-41.70
-36.55
-31.59
-26.92
-22.63
-18.82
-15.54
-12.77
-10.33
-8.00
-5.62
-3.18
-0.80
1.28
2.94
4.10
4.81
5.22
5.48
5.77
6.28
7.08
8.11
9.19
10.08
10.61
10.82
10.90
11.11
11.54
12.11
12.55
12.57
11.99
10.77
8.97
6.62
3.70
0.28
-3.36
-6.65
-8.82
-9.12
-7.09
-2.64
3.93
12.12
21.36
31.16
41.01
50.44
58.95
66.16
71.99
76.71
80.95
85.42
90.66
96.70
103.15
109.39
114.90
119.54
123.55
127.26
131.01
135.14
140.34
147.63
157.95
171.10
184.99
195.54
197.73
187.49
163.32
126.77
81.55
31.96
-18.31
-66.47
-110.01
-146.05
-171.74
-185.29
-187.34
-181.37
-172.81
-166.95
-166.89
-172.61
-181.30
-189.05
-192.59
-190.43
-183.05
-172.05
-159.29
-145.96
-132.45
-118.62
-104.38
-90.16
-76.85
-65.49
-56.69
-50.37
-45.78
-41.92
-37.98
-33.64
-29.08
-24.70
-20.84
-17.56
-14.72
-12.13
-9.65
-7.32
-5.26
-3.61
-2.48
-1.86
-1.60
-1.44
-1.16
-0.67
-0.04
0.52
0.74
0.48
-0.25
-1.30
-2.52
-3.80
-5.23
-6.98
-9.28
-12.23
-15.62
-18.90
-21.22
-21.75
-19.98
-15.94
-10.24
-3.81
2.45
7.97
12.57
16.32
19.35
21.65
23.18
23.94
24.11
24.03
24.15
24.78
26.06
27.90
29.87
31.43
31.93
30.78
27.69
22.77
16.58
10.05
4.25
0.07
-2.02
-2.08
-0.65
1.51
3.64
5.16
5.75
5.34
4.06
2.15
-0.14
-2.60
-5.18
-7.99
-11.29
-15.35
-20.35
-26.17
-32.31
-37.93
-41.97
-43.48
-41.83
-36.96
-29.36
-20.01
-10.00
-0.33
8.31
15.64
21.72
26.80
31.15
35.01
38.43
41.40
43.84
45.74
47.15
48.27
49.32
50.55
52.12
54.17
56.76
59.83
63.15
66.29
68.54
69.04
66.91
61.46
52.35
39.74
24.21
6.69
-11.69
-29.77
-46.45
-60.79
-72.05
-79.73
-83.74
-84.39
-82.47
-79.06
-75.24
-71.74
-68.69
-65.60
-61.63
-55.99
-48.34
-38.89
-28.40
-17.85
-8.07
0.43
7.52
13.37
18.18
22.12
25.22
27.46
28.88
29.65
29.99
30.21
30.49
30.85
31.15
31.18
30.77
29.93
28.81
27.64
26.53
25.43
24.12
22.30
19.73
16.43
12.54
8.34
4.07
-0.15
-4.23
-8.14
-11.82
-15.20
-18.31
-21.30
-24.42
-27.92
-31.85
-35.96
-39.67
-42.19
-42.73
-40.78
-36.23
-29.50
-21.41
-12.97
-5.04
1.89
7.74
12.77
17.29
21.38
24.93
27.64
29.32
30.01
29.99
29.63
29.24
28.93
28.68
28.47
28.36
28.44
28.81
29.43
30.11
30.62
30.75
30.41
29.61
28.40
26.76
24.67
22.13
19.24
16.16
13.05
9.93
6.68
3.14
-0.91
-5.56
-10.74
-16.24
-21.71
-26.62
-30.40
-32.45
-32.40
-30.26
-26.47
-21.79
-17.08
-12.94
-9.68
-7.26
-5.45
-4.04
-2.96
-2.23
-1.89
-1.88
-2.03
-2.13
-1.99
-1.57
-0.95
-0.32
0.24
0.70
1.18
1.84
2.74
3.81
4.80
5.40
5.37
4.59
3.13
1.19
-1.01
-3.27
-5.49
-7.72
-10.12
-12.94
-16.40
-20.62
-25.44
-30.44
-34.89
-37.96
-38.86
-37.13
-32.74
-26.07
-17.76
-8.57
0.85
9.97
18.45
26.04
32.56
37.94
42.19
45.41
47.74
49.36
50.48
51.33
52.14
53.13
54.31
55.49
56.34
56.47
55.66
53.95
51.60
48.95
46.26
43.56
40.63
37.19
32.95
27.78
21.70
14.94
7.82
0.75
-5.91
-11.96
-17.44
-22.62
-27.86
-33.43
-39.31
-45.10
-50.15
-53.80
-55.54
-55.16
-52.76
-48.64
-43.21
-36.94
-30.31
-23.85
-18.02
-13.15
-9.37
-6.62
-4.67
-3.34
-2.44
-1.87
-1.56
-1.37
-1.16
-0.85
-0.46
-0.11
0.08
0.04
-0.16
-0.40
-0.58
-0.80
-1.33
-2.46
-4.40
-7.08
-10.16
-13.14
-15.54
-17.12
-17.98
-18.47
-19.16
-20.61
-23.14
-26.71
-30.84
-34.69
-37.25
-37.66
-35.47
-30.78
-24.19
-16.54
-8.66
-1.16
5.64
11.60
16.65
20.71
23.69
25.47
25.98
25.19
23.11
19.80
15.41
10.19
4.51
-1.18
-6.39
-10.66
-13.55
-14.72
-14.05
-11.73
-8.35
-4.76
-1.83
-0.16
0.17
-0.40
-1.15
-1.41
-0.81
0.68
2.64
4.50
5.57
5.26
3.20
-0.57
-5.55
-10.76
-14.95
-17.01
-16.24
-12.69
-7.10
-0.66
5.36
10.01
12.88
14.02
13.84
12.79
11.19
9.12
6.54
3.43
-0.07
-3.61
-6.69
-8.87
-9.86
-9.65
-8.43
-6.46
-4.00
-1.24
1.65
4.46
6.87
8.52
9.09
8.45
6.74
4.37
1.88
-0.22
-1.62
-2.37
-2.87
-3.73
-5.56
-8.79
-13.51
-19.51
-26.28
-33.10
-39.13
-43.50
-45.39
-44.26
-39.98
-32.89
-23.78
-13.69
-3.53
5.96
14.34
21.43
27.09
31.24
33.82
34.88
34.55
33.13
30.99
28.53
26.17
24.19
22.78
21.92
21.41
20.92
20.16
18.98
17.47
15.91
14.58
13.67
13.15
12.78
12.29
11.40
10.03
8.21
6.13
4.02
2.13
0.54
-0.77
-2.04
-3.67
-6.08
-9.51
-13.85
-18.46
-22.36
-24.52
-24.21
-21.33
-16.46
-10.52
-4.57
0.68
4.93
8.29
11.06
13.57
16.07
18.70
21.52
24.49
27.53
30.52
33.36
36.00
38.42
40.61
42.55
44.20
45.56
46.63
47.43
47.99
48.25
48.16
47.60
46.44
44.54
41.81
38.30
34.20
29.80
25.37
21.06
16.76
12.23
7.30
2.11
-2.87
-7.05
-9.89
-11.25
-11.33
-10.54
-9.21
-7.49
-5.37
-2.94
-0.47
1.62
2.86
2.99
2.01
0.11
-2.41
-5.38
-8.66
-12.18
-15.75
-19.08
-21.87
-23.88
-25.12
-25.71
-25.92
-25.93
-25.78
-25.38
-24.56
-23.24
-21.53
-19.75
-18.34
-17.75
-18.18
-19.58
-21.70
-24.18
-26.75
-29.35
-32.07
-35.05
-38.40
-42.13
-46.14
-50.23
-54.07
-57.17
-58.92
-58.75
-56.29
-51.58
-45.10
-37.60
-29.83
-22.32
-15.28
-8.63
-2.25
3.94
9.86
15.33
20.15
24.19
27.40
29.77
31.27
31.92
31.70
30.69
29.12
27.30
25.64
24.45
23.89
23.87
24.03
23.94
23.22
21.73
19.58
17.10
14.64
12.51
10.79
9.32
7.78
5.74
2.81
-1.19
-6.18
-11.72
-17.10
-21.44
-23.97
-24.17
-22.00
-17.85
-12.44
-6.61
-1.04
3.86
8.02
11.55
14.54
16.95
18.61
19.39
19.31
18.57
17.49
16.34
15.23
14.08
12.76
11.25
9.65
8.15
6.87
5.80
4.73
3.42
1.71
-0.42
-2.79
-5.14
-7.25
-9.02
-10.54
-12.05
-13.89
-16.37
-19.64
-23.67
-28.20
-32.87
-37.19
-40.63
-42.64
-42.69
-40.46
-35.93
-29.54
-22.07
-14.42
-7.37
-1.34
3.66
7.84
11.40
14.41
16.80
18.47
19.42
19.79
19.81
19.71
19.62
19.52
19.34
19.02
18.52
17.91
17.34
16.93
16.77
16.73
16.58
15.98
14.67
12.59
9.97
7.18
4.62
2.49
0.73
-0.91
-2.84
-5.39
-8.76
-12.94
-17.59
-22.13
-25.84
-28.03
-28.28
-26.52
-23.06
-18.37
-13.07
-7.65
-2.51
2.05
5.82
8.63
10.47
11.46
11.88
12.03
12.16
12.37
12.62
12.82
12.82
12.57
12.04
11.26
10.33
9.38
8.56
7.97
7.55
7.15
6.52
5.43
3.79
1.64
-0.82
-3.37
-5.86
-8.26
-10.68
-13.33
-16.43
-20.09
-24.20
-28.38
-31.95
-34.13
-34.27
-32.09
-27.79
-21.94
-15.33
-8.63
-2.28
3.58
8.94
13.83
18.12
21.59
24.01
25.28
25.57
25.28
24.94
25.02
25.69
26.80
27.90
28.47
28.16
26.84
24.70
22.08
19.36
16.75
14.23
11.51
8.26
4.15
-0.92
-6.78
-13.00
-19.00
-24.28
-28.57
-31.95
-34.79
-37.71
-41.26
-45.70
-50.81
-55.76
-59.27
-60.00
-57.03
-50.20
-40.35
-28.94
-17.65
-7.77
0.10
6.06
10.66
14.50
17.99
21.16
23.90
26.01
27.41
28.18
28.49
28.50
28.35
28.14
27.87
27.47
26.84
25.84
24.40
22.50
20.22
17.71
15.12
12.62
10.37
8.57
7.48
7.35
8.29
10.19
12.68
15.22
17.29
18.53
18.82
18.29
17.24
16.12
15.50
15.95
17.89
21.43
26.20
31.46
36.28
39.86
41.76
42.04
41.06
39.39
37.49
35.66
34.04
32.48
30.74
28.48
25.34
21.11
15.75
9.45
2.61
-4.20
-10.34
-15.26
-18.64
-20.44
-21.01
-20.94
-20.85
-21.20
-22.14
-23.49
-24.97
-26.35
-27.61
-28.96
-30.66
-32.93
-35.85
-39.37
-43.30
-47.40
-51.30
-54.50
-56.40
-56.48
-54.48
-50.54
-45.18
-39.12
-33.09
-27.57
-22.74
-18.57
-14.91
-11.66
-8.78
-6.27
-4.16
-2.45
-1.13
-0.20
0.29
0.28
-0.26
-1.24
-2.48
-3.70
-4.66
-5.24
-5.47
-5.51
-5.56
-5.69
-5.98
-6.33
-6.63
-6.79
-6.81
-6.76
-6.79
-7.11
-7.99
-9.65
-12.29
-15.86
-19.97
-23.88
-26.64
-27.35
-25.53
-21.27
-15.31
-8.68
-2.31
3.23
7.90
11.93
15.65
19.18
22.47
25.34
27.68
29.48
30.90
32.04
32.91
33.41
33.31
32.48
30.88
28.59
25.86
22.98
20.21
17.77
15.76
14.10
12.55
10.75
8.35
5.19
1.41
-2.61
-6.35
-9.49
-11.97
-14.07
-16.23
-18.87
-22.19
-26.12
-30.27
-34.05
-36.73
-37.64
-36.27
-32.51
-26.66
-19.42
-11.65
-4.20
2.46
8.13
12.93
17.06
20.63
23.67
26.05
27.67
28.48
28.59
28.18
27.50
26.79
26.18
25.72
25.34
24.94
24.40
23.68
22.78
21.81
20.87
20.06
19.39
18.78
18.08
17.14
15.89
14.31
12.51
10.62
8.78
7.07
5.47
3.87
2.07
-0.15
-3.00
-6.60
-10.91
-15.71
-20.57
-24.92
-28.16
-29.75
-29.41
-27.15
-23.35
-18.61
-13.65
-9.05
-5.13
-1.94
0.70
3.03
5.20
7.24
9.00
10.35
11.22
11.68
11.93
12.11
12.30
12.41
12.32
11.97
11.46
10.99
10.79
10.97
11.42
11.84
11.86
11.17
9.63
7.31
4.44
1.35
-1.61
-4.25
-6.53
-8.60
-10.70
-13.13
-16.05
-19.53
-23.45
-27.53
-31.32
-34.22
-35.65
-35.15
-32.68
-28.51
-23.23
-17.42
-11.53
-5.73
0.02
5.78
11.50
16.93
21.77
25.75
28.77
30.87
32.18
32.82
32.92
32.54
31.81
30.85
29.80
28.74
27.71
26.70
25.66
24.56
23.34
21.91
20.15
17.88
15.07
11.82
8.35
4.94
1.79
-1.11
-3.91
-6.84
-10.12
-13.90
-18.28
-23.24
-28.73
-34.46
-39.94
-44.45
-47.29
-47.91
-46.23
-42.65
-37.94
-32.96
-28.40
-24.57
-21.43
-18.72
-16.14
-13.54
-10.91
-8.34
-5.97
-3.84
-1.97
-0.34
1.09
2.30
3.29
3.99
4.38
4.47
4.33
4.06
3.71
3.27
2.62
1.56
-0.06
-2.26
-4.88
-7.55
-9.87
-11.52
-12.41
-12.69
-12.79
-13.19
-14.34
-16.44
-19.43
-22.94
-26.43
-29.29
-30.96
-31.04
-29.33
-25.94
-21.21
-15.76
-10.27
-5.29
-1.15
2.14
4.81
7.12
9.26
11.31
13.22
14.98
16.62
18.15
19.63
21.00
22.17
23.03
23.50
23.61
23.54
23.56
24.00
25.14
27.01
29.32
31.42
32.61
32.31
30.45
27.34
23.53
19.48
15.31
10.80
5.61
-0.50
-7.39
-14.63
-21.61
-27.76
-32.54
-35.69
-37.06
-36.68
-34.77
-31.69
-27.88
-23.73
-19.49
-15.28
-11.17
-7.19
-3.53
-0.38
2.16
4.11
5.70
7.28
9.11
11.29
13.63
15.75
17.25
17.87
17.66
16.99
16.34
15.99
15.88
15.49
14.27
12.01
9.29
7.30
6.99
8.09
8.49
4.52
-7.90
-31.69
-67.80
-115.25
-171.71
-233.92
-297.43
-356.15
-402.42
-428.44
-428.66
-402.12
-353.10
-289.66
-220.70
-153.01
-89.95
-32.02
21.35
70.12
113.01
148.08
173.91
190.44
199.16
202.47
202.83
202.00
200.64
198.61
195.52
191.30
186.49
182.05
178.77
176.64
174.69
171.37
165.32
156.18
144.77
132.86
122.34
114.37
109.04
105.41
102.22
98.55
94.29
90.06
86.68
84.59
83.52
82.56
80.77
77.81
74.23
71.38
70.92
74.18
81.76
93.48
108.55
125.49
141.84
154.07
157.98
150.07
129.27
98.04
62.21
29.25
5.92
-3.72
0.99
17.88
43.15
72.54
101.88
127.27
145.28
153.59
151.74
141.45
126.03
109.05
92.93
78.11
63.33
46.51
25.90
0.85
-28.36
-61.08
-96.98
-136.20
-178.70
-223.31
-267.17
-305.99
-335.18
-351.32
-353.02
-341.02
-317.40
-284.83
-245.96
-203.53
-160.58
-120.33
-85.60
-57.97
-37.20
-21.37
-7.80
5.75
20.25
35.34
50.06
63.77
76.68
89.65
103.26
116.65
127.14
130.63
123.03
101.93
67.64
22.93
-28.16
-81.71
-134.57
-184.11
-227.90
-263.68
-289.92
-306.49
-314.45
-315.20
-309.07
-294.50
-268.50
-228.35
-173.76
-108.10
-38.21
27.54
81.84
120.80
144.78
157.40
163.19
165.16
163.31
154.86
136.50
107.04
69.02
28.06
-9.91
-42.01
-69.97
-98.93
-134.17
-177.42
-225.20
-269.70
-301.81
-314.44
-304.47
-272.93
-223.76
-162.19
-93.44
-22.29
46.97
110.74
166.44
213.04
251.10
282.29
308.43
330.45
347.65
357.89
358.59
348.17
327.37
299.36
268.69
239.49
213.82
191.09
168.76
144.03
115.21
82.43
47.24
11.92
-21.36
-50.99
-76.16
-96.99
-114.51
-130.39
-146.30
-163.12
-180.56
-197.24
-211.27
-220.95
-225.25
-223.87
-216.90
-204.55
-187.06
-164.77
-138.37
-108.82
-77.20
-44.51
-11.60
20.61
50.97
77.94
99.71
114.55
121.13
118.85
108.03
90.03
67.14
42.43
19.25
0.50
-12.02
-18.09
-19.05
-17.22
-14.96
-13.71
-13.56
-13.44
-11.83
-7.53
-0.21
9.53
20.51
31.40
41.07
48.82
54.45
58.25
60.97
63.54
66.91
71.61
77.52
83.65
88.53
90.69
89.09
83.22
72.75
57.10
35.35
6.77
-28.22
-67.19
-105.58
-137.57
-157.63
-162.16
-150.55
-125.45
-92.21
-57.91
-30.17
-15.66
-18.38
-38.16
-69.82
-103.73
-128.22
-132.91
-112.16
-67.36
-6.89
56.25
108.54
140.16
148.11
136.70
115.64
96.06
86.29
89.03
101.07
115.48
125.11
125.93
118.31
106.27
95.30
90.23
94.04
107.77
130.72
160.37
192.16
219.51
235.25
234.23
216.17
186.98
156.86
135.99
129.76
136.40
148.35
156.56
155.38
145.08
131.06
120.29
117.44
122.66
131.97
139.68
141.15
134.63
121.14
103.31
83.67
63.81
44.39
25.82
8.64
-6.33
-18.51
-28.32
-37.53
-49.06
-66.17
-91.37
-125.24
-165.63
-207.57
-244.09
-268.11
-274.77
-263.59
-239.14
-209.34
-182.24
-162.68
-150.51
-141.79
-131.88
-118.64
-103.69
-91.25
-85.41
-87.94
-97.86
-112.89
-131.09
-151.39
-172.64
-192.24
-205.84
-208.71
-198.21
-175.58
-145.86
-115.76
-91.05
-74.69
-66.80
-65.53
-68.21
-71.66
-72.19
-65.92
-50.09
-24.63
6.90
38.20
62.49
75.10
74.86
63.88
46.05
25.19
3.97
-16.19
-34.71
-51.39
-66.39
-80.14
-93.00
-104.48
-112.63
-114.23
-105.84
-85.68
-55.07
-18.71
16.66
44.70
61.74
67.91
66.61
62.74
60.57
62.35
68.08
76.16
84.46
91.11
94.67
94.21
89.39
80.70
69.65
58.45
49.38
44.11
43.13
45.78
50.32
54.09
53.46
44.34
23.36
-10.64
-55.56
-106.31
-156.63
-201.02
-235.97
-259.98
-272.66
-274.14
-265.33
-248.47
-227.17
-205.32
-185.04
-165.12
-141.26
-108.42
-63.95
-10.50
43.58
86.46
107.11
99.89
67.71
22.04
-20.87
-46.41
-48.01
-29.93
-4.83
13.14
15.93
5.57
-7.96
-13.21
-4.49
14.99
35.51
46.98
44.75
31.70
15.50
3.21
-2.98
-6.71
-14.74
-32.43
-60.52
-94.96
-128.99
-156.46
-173.92
-180.68
-177.30
-163.82
-139.25
-102.27
-52.92
6.32
70.59
133.92
190.83
237.60
272.40
294.88
305.42
304.77
294.20
275.53
250.88
222.01
189.59
153.26
112.45
67.85
22.44
-18.55
-48.86
-62.88
-57.13
-31.18
11.95
65.93
121.76
168.99
197.73
201.04
177.00
129.23
65.91
-2.80
-67.55
-121.65
-161.76
-187.22
-199.06
-199.17
-190.02
-174.45
-155.56
-136.39
-119.44
-106.15
-96.60
-89.54
-82.94
-74.97
-64.74
-52.66
-40.12
-28.64
-19.05
-11.10
-3.67
4.43
13.83
24.31
34.88
44.36
51.94
57.32
60.79
62.81
63.81
63.96
63.29
61.95
60.34
59.05
58.43
58.21
57.31
54.10
47.14
35.94
21.35
5.43
-9.34
-20.99
-28.78
-33.30
-36.08
-38.66
-41.89
-45.50
-48.30
-48.62
-44.88
-36.02
-21.68
-2.71
18.97
40.29
57.70
68.26
70.85
67.04
60.81
57.00
59.15
67.65
79.31
88.60
90.19
81.21
62.53
38.35
14.50
-3.58
-12.50
-11.74
-3.36
8.93
20.93
29.25
32.02
29.12
21.83
12.07
1.59
-8.50
-17.70
-25.90
-33.06
-39.15
-44.27
-48.59
-52.32
-55.36
-57.18
-56.92
-53.76
-47.34
-38.06
-26.99
-15.52
-5.06
3.39
9.40
13.12
15.16
16.36
17.42
18.78
20.43
22.12
23.52
24.52
25.29
26.21
27.61
29.59
31.97
34.32
36.12
36.87
36.14
33.61
29.14
22.85
15.22
7.06
-0.66
-7.05
-11.66
-14.56
-16.42
-18.16
-20.71
-24.60
-29.91
-36.14
-42.44
-47.74
-51.03
-51.54
-48.91
-43.26
-35.20
-25.63
-15.52
-5.68
3.34
11.31
18.12
23.70
27.99
30.89
32.43
32.76
32.20
31.18
30.17
29.50
29.34
29.63
30.10
30.43
30.33
29.65
28.48
27.01
25.41
23.76
21.97
19.92
17.50
14.81
12.02
9.38
6.98
4.77
2.43
-0.44
-4.21
-9.12
-15.10
-21.83
-28.64
-34.72
-39.16
-41.10
-40.02
-35.84
-29.01
-20.41
-11.13
-2.13
5.92
12.76
18.34
22.73
25.88
27.74
28.30
27.78
26.65
25.47
24.72
24.55
24.79
25.11
25.15
24.72
23.82
22.56
21.06
19.37
17.47
15.26
12.66
9.62
6.20
2.49
-1.30
-4.96
-8.33
-11.37
-14.14
-16.86
-19.80
-23.18
-27.08
-31.22
-34.99
-37.46
-37.75
-35.31
-30.29
-23.40
-15.67
-7.97
-0.69
6.17
12.79
19.08
24.55
28.48
30.25
29.77
27.54
24.50
21.65
19.69
18.86
19.00
19.76
20.79
21.84
22.80
23.62
24.23
24.51
24.30
23.39
21.66
19.09
15.82
12.17
8.52
5.27
2.57
0.32
-1.86
-4.41
-7.75
-12.01
-16.97
-22.07
-26.56
-29.65
-30.67
-29.30
-25.57
-19.94
-13.12
-5.91
0.94
6.95
11.86
15.59
18.12
19.45
19.64
18.88
17.54
16.14
15.19
15.03
15.64
16.70
17.67
18.05
17.56
16.23
14.31
12.14
9.91
7.69
5.47
3.28
1.27
-0.34
-1.32
-1.53
-1.04
-0.14
0.72
1.08
0.62
-0.62
-2.26
-3.66
-4.25
-3.86
-2.83
-1.87
-1.74
-2.84
-5.03
-7.77
-10.40
-12.44
-13.80
-14.61
-15.05
-15.23
-15.09
-14.55
-13.58
-12.28
-10.89
-9.62
-8.66
-8.09
-7.90
-8.07
-8.58
-9.40
-10.53
-11.91
-13.45
-15.00
-16.43
-17.65
-18.71
-19.86
-21.42
-23.66
-26.56
-29.62
-31.92
-32.37
-30.12
-24.94
-17.38
-8.60
0.09
7.64
13.56
17.81
20.71
22.65
23.81
24.24
23.77
22.17
19.21
14.84
9.20
2.68
-4.18
-10.78
-16.69
-21.76
-26.07
-29.86
-33.30
-36.47
-39.21
-41.33
-42.71
-43.33
-43.39
-43.18
-43.01
-43.14
-43.65
-44.48
-45.37
-45.80
-45.06
-42.36
-37.07
-29.02
-18.63
-6.92
4.71
14.94
22.91
28.42
31.91
34.19
36.03
37.90
39.90
41.79
43.31
44.30
44.86
45.28
45.94
47.11
48.83
50.90
52.99
54.76
56.05
56.92
57.70
58.76
60.34
62.44
64.80
67.06
68.94
70.26
71.05
71.44
71.66
72.04
73.07
75.26
78.85
83.50
87.91
89.91
86.88
76.56
58.03
32.20
1.86
-29.05
-56.65
-78.11
-92.46
-100.54
-104.34
-106.03
-107.18
-108.36
-109.34
-109.48
-108.34
-105.90
-102.52
-98.67
-94.63
-90.34
-85.57
-80.14
-74.18
-68.16
-62.70
-58.39
-55.51
-54.01
-53.66
-54.10
-55.01
-56.04
-56.67
-56.24
-53.99
-49.32
-42.10
-32.77
-22.32
-11.95
-2.76
4.59
9.94
13.61
16.10
17.90
19.33
20.51
21.34
21.72
21.56
20.93
20.03
19.14
18.56
18.44
18.79
19.46
20.22
20.82
20.99
20.51
19.16
16.87
13.75
10.15
6.52
3.33
0.82
-1.09
-2.81
-4.97
-8.11
-12.44
-17.62
-22.75
-26.59
-27.92
-26.06
-21.05
-13.70
-5.24
3.09
10.43
16.42
21.10
24.69
27.32
29.09
30.04
30.29
30.05
29.50
28.83
28.07
27.21
26.25
25.24
24.29
23.48
22.81
22.15
21.26
19.85
17.70
14.76
11.17
7.29
3.49
0.04
-3.04
-5.96
-9.01
-12.52
-16.65
-21.44
-26.76
-32.20
-37.08
-40.41
-41.09
-38.29
-31.93
-22.74
-12.27
-2.19
6.20
12.47
16.98
20.44
23.46
26.17
28.32
29.56
29.77
29.21
28.35
27.60
27.16
26.88
26.49
25.75
24.61
23.28
22.06
21.21
20.79
20.65
20.43
19.71
18.14
15.54
12.06
8.08
4.11
0.58
-2.31
-4.60
-6.60
-8.66
-11.12
-14.18
-17.86
-21.99
-26.24
-30.07
-32.80
-33.77
-32.51
-28.94
-23.41
-16.63
-9.38
-2.36
4.01
9.59
14.37
18.34
21.48
23.73
25.12
25.78
25.95
25.83
25.59
25.27
24.84
24.27
23.50
22.57
21.59
20.64
19.89
19.44
19.26
19.22
19.04
18.44
17.17
15.14
12.42
9.24
5.88
2.64
-0.27
-2.72
-4.74
-6.51
-8.34
-10.56
-13.36
-16.67
-20.08
-22.93
-24.50
-24.25
-21.98
-17.95
-12.69
-6.86
-1.04
4.35
9.09
13.02
16.07
18.16
19.27
19.45
18.75
17.36
15.50
13.51
11.77
10.72
10.62
11.52
13.13
14.92
16.30
16.92
16.69
15.82
14.63
13.34
12.02
10.61
9.00
7.17
5.19
3.18
1.22
-0.64
-2.44
-4.28
-6.29
-8.62
-11.34
-14.52
-18.11
-21.96
-25.85
-29.37
-32.03
-33.28
-32.66
-29.89
-25.02
-18.50
-11.07
-3.60
3.22
8.94
13.50
17.11
20.04
22.51
24.54
26.06
26.95
27.18
26.84
26.16
25.37
24.68
24.15
23.73
23.30
22.75
22.07
21.29
20.49
19.67
18.76
17.65
16.19
14.33
12.14
9.74
7.32
4.98
2.74
0.53
-1.74
-4.13
-6.61
-9.08
-11.43
-13.67
-15.95
-18.55
-21.67
-25.28
-28.95
-31.98
-33.53
-32.99
-30.22
-25.53
-19.61
-13.18
-6.87
-1.04
4.20
8.81
12.79
16.11
18.69
20.53
21.69
22.28
22.51
22.52
22.40
22.16
21.76
21.21
20.61
20.13
19.98
20.24
20.76
21.21
21.22
20.54
19.17
17.41
15.57
13.91
12.44
11.01
9.38
7.44
5.20
2.83
0.48
-1.77
-3.98
-6.29
-8.79
-11.50
-14.40
-17.41
-20.47
-23.44
-26.07
-27.97
-28.66
-27.78
-25.20
-21.15
-16.09
-10.62
-5.27
-0.40
3.81
7.30
10.10
12.26
13.86
15.04
15.91
16.56
17.07
17.49
17.89
18.34
18.83
19.32
19.72
19.90
19.79
19.41
18.86
18.23
17.55
16.76
15.75
14.43
12.81
10.95
9.00
7.08
5.29
3.61
1.91
0.01
-2.29
-5.12
-8.43
-12.06
-15.76
-19.34
-22.74
-26.07
-29.51
-33.10
-36.64
-39.61
-41.39
-41.42
-39.40
-35.40
-29.80
-23.13
-15.97
-8.83
-2.16
3.72
8.62
12.52
15.49
17.74
19.46
20.78
21.69
22.17
22.21
21.91
21.45
21.03
20.76
20.66
20.61
20.47
20.14
19.56
18.72
17.67
16.49
15.27
14.09
13.01
11.96
10.82
9.43
7.63
5.37
2.71
-0.24
-3.36
-6.58
-9.87
-13.27
-16.85
-20.65
-24.68
-28.86
-32.94
-36.50
-39.00
-39.95
-39.03
-36.25
-31.96
-26.72
-21.14
-15.65
-10.48
-5.72
-1.44
2.28
5.31
7.62
9.33
10.65
11.88
13.20
14.60
15.93
17.00
17.74
18.21
18.63
19.23
20.17
21.43
22.81
24.05
24.90
25.19
24.84
23.89
22.37
20.29
17.69
14.64
11.28
7.84
4.56
1.58
-1.17
-3.93
-7.07
-10.85
-15.30
-20.12
-24.71
-28.36
-30.48
-30.71
-29.08
-25.86
-21.46
-16.29
-10.74
-5.09
0.37
5.36
9.63
13.02
15.47
17.13
18.23
19.05
19.84
20.69
21.61
22.53
23.35
23.98
24.34
24.37
24.10
23.63
23.14
22.81
22.76
22.91
23.08
23.03
22.60
21.80
20.78
19.73
18.78
17.94
17.07
15.94
14.25
11.71
8.13
3.44
-2.20
-8.35
-14.43
-19.76
-23.75
-26.04
-26.51
-25.26
-22.62
-19.03
-15.05
-11.18
-7.84
-5.22
-3.30
-1.85
-0.60
0.64
1.97
3.38
4.79
6.13
7.30
8.27
8.99
9.50
9.88
10.36
11.17
12.48
14.25
16.22
18.01
19.18
19.42
18.66
16.96
14.47
11.37
7.78
3.75
-0.69
-5.56
-10.91
-16.76
-23.04
-29.43
-35.32
-39.88
-42.27
-41.93
-38.79
-33.32
-26.43
-19.25
-12.80
-7.81
-4.55
-2.90
-2.48
-2.85
-3.77
-5.21
-7.21
-9.69
-12.31
-14.47
-15.60
-15.35
-13.76
-11.07
-7.50
-3.11
2.14
8.16
14.51
20.41
25.03
27.89
29.12
29.35
29.41
29.93
31.02
32.26
32.87
31.98
28.86
23.00
14.26
2.88
-10.55
-25.10
-39.61
-52.87
-63.84
-71.76
-76.26
-77.40
-75.57
-71.37
-65.56
-58.87
-51.96
-45.32
-39.31
-34.11
-29.68
-25.83
-22.27
-18.72
-14.99
-11.15
-7.40
-4.10
-1.57
0.05
0.80
0.93
0.71
0.35
-0.11
-0.75
-1.70
-2.95
-4.33
-5.63
-6.66
-7.53
-8.52
-10.05
-12.41
-15.67
-19.60
-23.87
-28.16
-32.18
-35.65
-38.22
-39.38
-38.64
-35.72
-30.74
-24.21
-16.90
-9.54
-2.65
3.58
9.11
13.84
17.56
20.01
21.13
21.20
20.76
20.44
20.63
21.29
22.05
22.48
22.37
21.85
21.29
21.00
21.03
21.18
21.10
20.60
19.62
18.30
16.72
14.89
12.71
10.17
7.38
4.66
2.36
0.70
-0.41
-1.29
-2.44
-4.28
-7.04
-10.61
-14.61
-18.34
-21.05
-22.02
-20.84
-17.55
-12.62
-6.84
-1.01
4.32
8.96
13.03
16.78
20.32
23.53
26.08
27.60
27.89
27.06
25.48
23.67
22.08
20.92
20.15
19.57
18.97
18.26
17.46
16.64
15.80
14.93
13.94
12.78
11.47
9.97
8.23
6.12
3.51
0.43
-2.95
-6.30
-9.36
-12.05
-14.54
-17.14
-20.13
-23.60
-27.45
-31.32
-34.75
-37.25
-38.38
-37.84
-35.55
-31.66
-26.57
-20.77
-14.76
-8.91
-3.42
1.62
6.15
10.15
13.57
16.46
18.91
21.05
22.97
24.65
26.02
26.98
27.51
27.71
27.77
27.85
28.05
28.35
28.63
28.75
28.56
27.96
26.89
25.34
23.36
21.01
18.43
15.73
13.03
10.37
7.81
5.36
2.99
0.61
-1.95
-4.93
-8.54
-12.86
-17.72
-22.67
-27.03
-30.14
-31.47
-30.90
-28.66
-25.28
-21.40
-17.59
-14.13
-11.10
-8.39
-5.83
-3.32
-0.83
1.56
3.74
5.60
7.03
7.96
8.43
8.57
8.64
8.88
9.47
10.42
11.59
12.76
13.77
14.60
15.30
16.00
16.73
17.36
17.65
17.35
16.30
14.52
12.13
9.29
6.17
2.93
-0.22
-3.04
-5.35
-7.16
-8.69
-10.32
-12.40
-15.01
-17.87
-20.39
-21.86
-21.75
-19.87
-16.33
-11.57
-6.11
-0.52
4.71
9.18
12.68
15.17
16.79
17.75
18.24
18.33
17.99
17.09
15.58
13.53
11.20
9.02
7.41
6.71
7.09
8.52
10.87
13.95
17.56
21.50
25.50
29.10
31.66
32.49
31.05
27.19
21.34
14.40
7.47
1.53
-2.90
-5.84
-7.71
-9.17
-10.77
-12.91
-15.74
-19.13
-22.72
-25.90
-27.96
-28.26
-26.47
-22.62
-17.06
-10.21
-2.38
6.36
16.04
26.66
37.90
49.10
59.32
67.67
73.68
77.48
79.79
81.74
84.35
88.19
93.25
99.03
104.95
110.65
116.12
121.51
126.88
131.89
135.97
138.54
139.36
138.64
136.99
135.14
133.81
133.52
134.61
137.03
140.13
142.46
141.79
135.56
121.54
98.58
66.94
28.31
-14.72
-59.22
-102.42
-142.08
-176.46
-204.39
-225.22
-238.80
-245.47
-246.04
-241.67
-233.69
-223.37
-211.79
-199.64
-187.33
-174.99
-162.66
-150.47
-138.62
-127.42
-117.25
-108.41
-101.13
-95.49
-91.34
-88.35
-86.07
-83.98
-81.69
-78.98
-75.91
-72.74
-69.81
-67.46
-65.87
-64.97
-64.48
-64.03
-63.27
-62.05
-60.39
-58.46
-56.49
-54.74
-53.50
-53.02
-53.51
-54.84
-56.48
-57.45
-56.63
-53.11
-46.60
-37.63
-27.34
-17.06
-7.91
-0.42
5.36
9.72
12.98
15.32
16.80
17.49
17.57
17.39
17.35
17.77
18.76
20.15
21.63
22.85
23.57
23.75
23.47
22.87
22.14
21.35
20.52
19.62
18.57
17.28
15.71
13.86
11.79
9.60
7.39
5.20
3.01
0.72
-1.82
-4.80
-8.32
-12.34
-16.62
-20.63
-23.67
-24.99
-24.10
-20.91
-15.87
-9.74
-3.39
2.52
7.67
12.07
15.80
18.92
21.33
22.83
23.35
23.01
22.16
21.24
20.62
20.43
20.58
20.87
21.07
21.07
20.85
20.48
19.99
19.38
18.56
17.38
15.66
13.28
10.31
6.97
3.62
0.68
-1.61
-3.26
-4.62
-6.22
-8.56
-11.87
-15.95
-20.13
-23.46
-24.98
-24.00
-20.39
-14.52
-7.19
0.69
8.28
15.00
20.57
24.91
28.05
30.04
30.96
30.98
30.33
29.30
28.13
26.95
25.78
24.54
23.19
21.73
20.26
18.93
17.83
17.00
16.30
15.57
14.62
13.34
11.71
9.78
7.65
5.36
2.92
0.24
-2.80
-6.33
-10.36
-14.67
-18.75
-21.87
-23.27
-22.43
-19.23
-14.10
-7.78
-1.11
5.26
10.93
15.83
19.98
23.45
26.19
28.10
29.10
29.20
28.51
27.17
25.36
23.17
20.67
17.88
14.83
11.65
8.55
5.81
3.64
2.10
0.95
-0.21
-1.85
-4.21
-7.22
-10.52
-13.65
-16.30
-18.54
-20.78
-23.61
-27.47
-32.50
-38.35
-44.36
-49.67
-53.46
-55.21
-54.61
-51.68
-46.69
-40.07
-32.42
-24.35
-16.41
-8.89
-1.91
4.60
10.66
16.15
20.76
24.14
26.12
26.87
26.83
26.58
26.56
26.86
27.35
27.70
27.60
26.88
25.50
23.52
21.02
18.06
14.68
10.91
6.82
2.51
-1.92
-6.45
-11.18
-16.24
-21.65
-27.11
-31.90
-35.01
-35.54
-33.02
-27.76
-20.63
-12.73
-4.95
2.26
8.93
15.27
21.40
27.24
32.51
36.94
40.36
42.71
44.00
44.22
43.37
41.52
38.86
35.71
32.42
29.28
26.43
23.88
21.58
19.46
17.53
15.84
14.43
13.22
12.00
10.45
8.27
5.31
1.70
-2.24
-6.12
-9.61
-12.65
-15.39
-18.09
-21.04
-24.39
-28.19
-32.35
-36.60
-40.47
-43.28
-44.27
-42.84
-38.82
-32.59
-24.96
-16.89
-9.15
-2.14
4.11
9.69
14.65
18.93
22.37
24.86
26.43
27.27
27.62
27.71
27.64
27.44
27.06
26.51
25.85
25.26
24.87
24.74
24.78
24.76
24.43
23.63
22.35
20.71
18.86
16.89
14.79
12.52
10.08
7.59
5.23
3.15
1.33
-0.42
-2.44
-4.96
-8.10
-11.78
-15.82
-20.02
-24.16
-27.94
-30.93
-32.58
-32.36
-30.06
-25.82
-20.27
-14.24
-8.54
-3.71
0.11
3.16
5.79
8.30
10.82
13.17
15.05
16.18
16.46
16.08
15.48
15.14
15.32
16.01
16.88
17.54
17.74
17.49
17.03
16.62
16.41
16.29
15.94
15.07
13.53
11.38
8.83
6.07
3.18
0.13
-3.09
-6.43
-9.72
-12.81
-15.72
-18.64
-21.84
-25.39
-29.05
-32.09
-33.65
-33.03
-30.03
-25.09
-19.03
-12.71
-6.75
-1.31
3.76
8.66
13.52
18.15
22.22
25.38
27.42
28.41
28.60
28.33
27.92
27.57
27.35
27.23
27.02
26.51
25.45
23.70
21.21
18.09
14.53
10.77
6.99
3.33
-0.09
-3.17
-5.80
-7.90
-9.47
-10.65
-11.68
-12.79
-14.16
-15.83
-17.76
-19.86
-22.08
-24.49
-27.19
-30.17
-33.21
-35.84
-37.42
-37.36
-35.32
-31.34
-25.87
-19.59
-13.22
-7.31
-2.13
2.34
6.21
9.64
12.65
15.15
17.03
18.22
18.80
19.00
19.06
19.14
19.27
19.38
19.40
19.29
19.08
18.82
18.52
18.11
17.47
16.54
15.30
13.80
12.11
10.25
8.24
6.07
3.79
1.47
-0.80
-2.94
-4.91
-6.75
-8.55
-10.42
-12.47
-14.80
-17.48
-20.54
-23.96
-27.58
-31.09
-34.04
-35.87
-36.10
-34.44
-30.99
-26.15
-20.52
-14.71
-9.16
-4.09
0.48
4.56
8.16
11.20
13.62
15.38
16.55
17.22
17.48
17.44
17.17
16.79
16.44
16.32
16.56
17.21
18.20
19.32
20.34
21.04
21.26
20.98
20.29
19.32
18.25
17.18
16.11
14.89
13.38
11.47
9.18
6.66
4.11
1.72
-0.44
-2.47
-4.63
-7.22
-10.47
-14.40
-18.73
-22.96
-26.46
-28.63
-29.10
-27.86
-25.23
-21.75
-18.03
-14.54
-11.57
-9.16
-7.24
-5.59
-4.05
-2.51
-1.01
0.37
1.54
2.43
3.12
3.73
4.44
5.37
6.51
7.78
9.05
10.19
11.14
11.85
12.29
12.42
12.18
11.52
10.48
9.10
7.53
5.91
4.38
2.99
1.68
0.32
-1.30
-3.27
-5.67
-8.47
-11.65
-15.20
-19.11
-23.29
-27.43
-31.05
-33.53
-34.41
-33.51
-31.03
-27.42
-23.20
-18.76
-14.29
-9.85
-5.52
-1.44
2.20
5.24
7.63
9.42
10.76
11.79
12.64
13.39
14.09
14.78
15.44
16.01
16.40
16.54
16.41
16.01
15.40
14.60
13.58
12.30
10.71
8.78
6.60
4.31
2.09
0.10
-1.57
-2.96
-4.17
-5.34
-6.65
-8.24
-10.28
-12.91
-16.13
-19.75
-23.31
-26.13
-27.54
-27.16
-25.04
-21.70
-17.88
-14.24
-11.16
-8.64
-6.52
-4.62
-2.93
-1.53
-0.52
0.15
0.66
1.25
2.09
3.13
4.19
5.08
5.67
6.03
6.27
6.48
6.67
6.76
6.70
6.52
6.31
6.12
5.91
5.54
4.87
3.88
2.73
1.66
0.81
0.09
-0.86
-2.53
-5.36
-9.41
-14.37
-19.56
-24.19
-27.54
-29.18
-28.98
-27.13
-23.98
-19.92
-15.33
-10.48
-5.57
-0.77
3.79
7.99
11.71
14.82
17.22
18.85
19.75
20.02
19.89
19.64
19.56
19.83
20.49
21.47
22.56
23.53
24.20
24.45
24.27
23.64
22.58
21.09
19.23
17.06
14.76
12.50
10.35
8.30
6.17
3.71
0.69
-3.03
-7.42
-12.17
-16.81
-20.70
-23.27
-24.18
-23.37
-21.18
-18.10
-14.57
-10.89
-7.15
-3.37
0.35
3.79
6.65
8.74
10.08
10.96
11.76
12.84
14.44
16.56
19.09
21.83
24.54
27.04
29.19
30.95
32.40
33.58
34.51
35.07
35.01
34.06
32.03
28.85
24.62
19.56
13.92
7.97
1.92
-4.16
-10.31
-16.65
-23.28
-30.10
-36.68
-42.36
-46.39
-48.25
-47.83
-45.39
-41.48
-36.63
-31.26
-25.68
-20.21
-15.26
-11.31
-8.75
-7.65
-7.71
-8.33
-8.81
-8.63
-7.53
-5.55
-2.87
0.31
3.84
7.60
11.48
15.34
18.97
22.15
24.74
26.64
27.88
28.49
28.50
27.94
26.74
24.86
22.23
18.85
14.75
10.00
4.65
-1.15
-7.24
-13.31
-19.00
-23.90
-27.60
-29.80
-30.39
-29.47
-27.34
-24.44
-21.26
-18.17
-15.39
-12.95
-10.71
-8.40
-5.78
-2.67
0.94
4.93
9.09
13.21
17.14
20.82
24.20
27.16
29.50
30.95
31.36
30.75
29.36
27.50
25.40
23.06
20.29
16.88
12.69
7.81
2.49
-3.00
-8.50
-14.02
-19.69
-25.65
-31.88
-38.19
-44.29
-49.82
-54.49
-58.07
-60.37
-61.19
-60.38
-57.84
-53.61
-47.94
-41.23
-33.97
-26.54
-19.18
-12.01
-5.02
1.72
8.06
13.76
18.58
22.31
24.89
26.37
26.91
26.68
25.90
24.75
23.44
22.12
20.88
19.76
18.76
17.89
17.18
16.66
16.33
16.15
15.95
15.53
14.69
13.31
11.40
9.07
6.53
3.95
1.45
-0.92
-3.25
-5.72
-8.59
-12.09
-16.33
-21.09
-25.81
-29.71
-31.90
-31.83
-29.40
-25.03
-19.50
-13.64
-8.07
-3.09
1.29
5.17
8.64
11.69
14.22
16.16
17.48
18.30
18.84
19.31
19.89
20.61
21.36
21.97
22.32
22.40
22.36
22.40
22.69
23.24
23.80
24.07
23.70
22.56
20.70
18.37
15.81
13.19
10.52
7.65
4.46
0.83
-3.22
-7.65
-12.34
-17.16
-21.88
-26.15
-29.52
-31.48
-31.76
-30.37
-27.65
-24.19
-20.58
-17.30
-14.58
-12.48
-10.90
-9.73
-8.87
-8.26
-7.85
-7.55
-7.23
-6.69
-5.68
-4.07
-1.88
0.69
3.30
5.61
7.43
8.80
9.90
10.96
12.01
12.91
13.39
13.16
12.14
10.54
8.66
6.86
5.26
3.75
2.01
-0.29
-3.36
-7.25
-11.87
-17.06
-22.53
-27.91
-32.63
-35.96
-37.26
-36.17
-32.74
-27.48
-21.20
-14.69
-8.57
-3.21
1.28
4.89
7.67
9.72
11.15
12.11
12.69
12.93
12.84
12.41
11.72
10.96
10.35
10.07
10.19
10.62
11.18
11.66
11.88
11.75
11.27
10.42
9.24
7.73
5.89
3.76
1.40
-1.06
-3.52
-5.86
-8.06
-10.13
-12.16
-14.25
-16.52
-19.02
-21.82
-24.95
-28.40
-32.07
-35.67
-38.68
-40.44
-40.34
-38.06
-33.72
-27.86
-21.30
-14.80
-8.91
-3.80
0.61
4.52
8.04
11.16
13.76
15.72
17.05
17.89
18.46
18.95
19.42
19.88
20.30
20.72
21.21
21.86
22.68
23.54
24.23
24.53
24.35
23.75
22.83
21.71
20.42
18.88
16.93
14.41
11.31
7.75
4.02
0.50
-2.49
-4.79
-6.47
-7.78
-9.05
-10.58
-12.53
-14.94
-17.62
-20.21
-22.19
-22.99
-22.16
-19.54
-15.32
-10.02
-4.28
1.36
6.54
11.20
15.32
18.93
21.95
24.27
25.84
26.71
27.11
27.27
27.40
27.63
28.02
28.56
29.25
30.04
30.82
31.42
31.60
31.16
29.98
28.08
25.56
22.55
19.14
15.41
11.38
7.18
2.99
-0.92
-4.28
-6.94
-8.91
-10.38
-11.66
-13.05
-14.73
-16.84
-19.33
-22.01
-24.57
-26.58
-27.62
-27.42
-26.01
-23.79
-21.37
-19.35
-18.09
-17.58
-17.47
-17.27
-16.55
-15.09
-12.92
-10.23
-7.30
-4.41
-1.74
0.63
2.70
4.52
6.13
7.54
8.75
9.80
10.76
11.77
12.91
14.13
15.28
16.13
16.46
16.15
15.18
13.65
11.69
9.43
6.97
4.32
1.40
-1.94
-5.84
-10.32
-15.27
-20.41
-25.44
-30.03
-33.86
-36.64
-38.06
-37.86
-35.98
-32.57
-28.05
-22.93
-17.69
-12.61
-7.82
-3.37
0.67
4.13
6.85
8.73
9.86
10.44
10.70
10.82
10.88
10.84
10.64
10.30
9.90
9.55
9.32
9.16
8.98
8.63
8.00
7.01
5.59
3.69
1.29
-1.57
-4.69
-7.83
-10.77
-13.36
-15.65
-17.83
-20.12
-22.71
-25.70
-29.07
-32.65
-36.17
-39.17
-41.17
-41.70
-40.49
-37.55
-33.16
-27.75
-21.82
-15.75
-9.83
-4.27
0.80
5.29
9.14
12.36
15.00
17.12
18.75
19.96
20.82
21.41
21.83
22.09
22.20
22.15
21.94
21.63
21.30
20.96
20.63
20.22
19.62
18.75
17.54
15.91
13.89
11.51
8.90
6.22
3.61
1.12
-1.32
-3.86
-6.65
-9.82
-13.42
-17.42
-21.70
-26.02
-29.97
-32.98
-34.43
-33.81
-30.95
-26.10
-19.86
-13.03
-6.36
-0.33
4.91
9.45
13.44
16.95
19.91
22.19
23.74
24.65
25.15
25.48
25.79
26.11
26.37
26.54
26.65
26.78
27.01
27.31
27.59
27.70
27.51
26.91
25.87
24.34
22.35
20.00
17.44
14.87
12.38
9.95
7.40
4.53
1.18
-2.62
-6.75
-11.03
-15.23
-19.14
-22.47
-24.88
-26.01
-25.64
-23.73
-20.57
-16.61
-12.39
-8.30
-4.57
-1.22
1.79
4.45
6.69
8.35
9.40
9.89
10.00
9.97
9.97
10.12
10.44
10.92
11.58
12.42
13.46
14.64
15.81
16.73
17.16
16.87
15.81
14.08
11.88
9.45
6.93
4.36
1.72
-1.07
-4.07
-7.34
-10.93
-14.88
-19.14
-23.51
-27.60
-30.91
-32.96
-33.48
-32.41
-29.87
-26.13
-21.46
-16.17
-10.65
-5.28
-0.47
3.50
6.51
8.59
9.89
10.68
11.18
11.57
11.97
12.32
12.48
12.25
11.43
9.92
7.86
5.49
3.13
1.06
-0.60
-1.90
-3.04
-4.27
-5.74
-7.45
-9.28
-11.02
-12.50
-13.68
-14.70
-15.78
-17.18
-19.10
-21.62
-24.65
-27.95
-31.09
-33.54
-34.66
-33.98
-31.25
-26.56
-20.34
-13.15
-5.51
2.16
9.60
16.59
22.93
28.36
32.70
35.83
37.88
39.08
39.81
40.46
41.36
42.70
44.38
46.00
46.83
45.98
42.66
36.50
27.67
16.88
5.17
-6.38
-16.92
-25.94
-33.19
-38.62
-42.22
-44.02
-44.19
-43.07
-41.17
-39.08
-37.37
-36.42
-36.34
-36.99
-38.02
-39.06
-39.66
-39.43
-38.02
-35.23
-31.03
-25.64
-19.43
-12.87
-6.31
-0.01
5.89
11.31
16.11
20.10
23.15
25.26
26.65
27.75
28.95
30.50
32.38
34.31
35.99
37.17
37.88
38.24
38.41
38.41
38.06
37.15
35.53
33.30
30.75
28.24
25.99
23.97
21.96
19.71
17.07
14.08
10.83
7.34
3.50
-0.84
-5.80
-11.23
-16.65
-21.38
-24.69
-26.12
-25.62
-23.62
-20.84
-18.13
-16.06
-14.83
-14.18
-13.56
-12.46
-10.61
-8.16
-5.60
-3.41
-1.88
-0.98
-0.39
0.25
1.10
2.07
2.90
3.33
3.33
3.06
2.76
2.58
2.42
2.01
1.01
-0.69
-2.97
-5.47
-7.82
-9.84
-11.62
-13.50
-15.87
-19.05
-23.17
-28.14
-33.62
-39.02
-43.53
-46.33
-46.85
-44.94
-40.94
-35.51
-29.26
-22.57
-15.50
-8.07
-0.44
6.92
13.42
18.54
22.17
24.54
26.10
27.26
28.20
28.94
29.39
29.55
29.53
29.49
29.48
29.46
29.28
28.84
28.20
27.58
27.25
27.39
27.93
28.51
28.67
27.99
26.30
23.70
20.50
17.04
13.55
10.11
6.73
3.36
-0.01
-3.35
-6.56
-9.46
-11.74
-13.02
-12.92
-11.14
-7.55
-2.21
4.60
12.45
20.80
29.02
36.59
43.14
48.65
53.38
57.80
62.48
67.84
74.08
81.08
88.42
95.48
101.66
106.58
110.21
112.84
114.85
116.38
117.13
116.36
113.14
106.72
96.84
83.81
68.36
51.38
33.75
16.12
-1.12
-17.88
-34.37
-51.07
-68.52
-87.17
-107.19
-128.16
-149.07
-168.37
-184.20
