1723737621.00
64.000000
-0.00
-0.00
-0.00
-0.00
-0.00
-0.00
-0.00
-0.00
-0.00
-0.00
0.00
0.01
0.01
-0.00
-0.03
-0.05
-0.05
0.00
0.13
0.36
0.66
1.01
1.37
1.72
2.06
2.40
2.79
3.24
3.80
4.42
5.06
5.66
6.20
6.68
7.15
7.68
8.31
9.14
10.09
11.04
11.88
12.56
13.14
13.76
14.65
15.96
17.91
20.32
22.90
25.38
27.58
29.57
31.68
34.32
37.81
42.54
48.15
54.10
59.83
64.97
69.58
74.14
79.34
85.71
93.76
103.00
112.62
121.73
129.77
136.75
143.30
150.75
157.77
166.64
177.95
191.79
206.97
220.57
228.25
225.36
208.53
176.87
132.76
80.05
23.07
-34.94
-92.44
-149.16
-205.23
-260.37
-313.74
-363.87
-409.83
-450.91
-486.50
-515.74
-537.23
-549.22
-549.96
-538.37
-514.21
-478.67
-433.88
-382.45
-327.02
-269.84
-212.63
-156.66
-102.95
-52.37
-5.91
35.57
71.42
101.35
125.52
144.41
158.73
169.17
176.34
180.64
182.36
181.77
179.16
174.87
169.31
162.85
155.82
148.44
140.85
133.15
125.39
117.67
110.03
102.54
95.23
88.08
81.11
74.32
67.78
61.57
55.77
50.42
45.46
40.79
36.28
31.83
27.44
23.24
19.41
16.12
13.42
11.20
9.21
7.15
4.84
2.27
-0.31
-2.57
-4.18
-5.03
-5.32
-5.49
-6.05
-7.31
-9.27
-11.55
-13.57
-14.91
-15.34
-15.09
-14.62
-14.44
-14.96
-16.47
-19.12
-22.83
-26.92
-30.01
-30.23
-25.92
-16.58
-3.39
11.01
23.51
31.82
35.36
35.16
33.10
30.76
28.81
27.01
24.85
22.13
19.22
16.80
15.42
15.12
15.54
16.10
16.18
15.54
14.25
12.59
10.90
9.44
8.32
7.50
6.90
6.51
6.38
6.54
6.89
7.21
7.10
6.24
4.61
2.53
0.69
-0.24
0.07
1.48
3.43
5.23
6.48
7.19
7.70
8.41
9.53
10.96
12.45
13.81
14.98
15.97
16.64
16.69
15.69
13.33
9.75
5.35
0.77
-3.30
-6.49
-8.74
-10.20
-11.08
-11.56
-11.77
-11.87
-11.96
-12.09
-12.24
-12.26
-11.99
-11.36
-10.48
-9.58
-8.99
-8.87
-9.21
-9.83
-10.40
-10.56
-10.13
-9.11
-7.73
-6.36
-5.31
-4.77
-4.67
-4.77
-4.83
-4.66
-4.30
-3.87
-3.63
-3.63
-3.88
-4.25
-4.59
-4.83
-4.90
-4.80
-4.57
-4.24
-3.82
-3.28
-2.55
-1.59
-0.43
0.82
2.07
3.24
4.35
5.49
6.74
7.98
9.01
9.55
9.41
8.64
7.45
6.04
4.70
3.72
3.18
3.05
3.22
3.48
3.59
3.39
2.78
1.89
0.97
0.23
-0.21
-0.44
-0.71
-1.26
-2.23
-3.55
-4.97
-6.26
-7.28
-7.99
-8.47
-8.86
-9.19
-9.55
-9.94
-10.36
-10.84
-11.33
-11.67
-11.64
-10.95
-9.38
-6.93
-3.83
-0.46
2.71
5.36
7.38
8.79
9.76
10.40
10.73
10.69
10.21
9.30
8.14
6.97
5.99
5.27
4.73
4.18
3.48
2.63
1.69
0.79
-0.03
-0.84
-1.76
-2.88
-4.18
-5.46
-6.50
-7.19
-7.56
-7.84
-8.30
-9.10
-10.24
-11.48
-12.45
-12.78
-12.17
-10.54
-7.96
-4.68
-1.08
2.46
5.56
7.91
9.41
10.18
10.50
10.67
10.82
10.90
10.72
10.15
9.26
8.30
7.50
6.96
6.57
6.06
5.30
4.34
3.35
2.51
1.77
0.88
-0.46
-2.38
-4.68
-6.93
-8.71
-9.83
-10.44
-10.84
-11.35
-12.08
-12.94
-13.65
-13.91
-13.47
-12.18
-10.01
-7.15
-3.84
-0.41
2.85
5.83
8.52
10.92
12.95
14.38
14.89
14.35
12.88
10.88
8.90
7.34
6.39
6.00
5.94
6.00
6.02
5.83
5.26
4.20
2.62
0.64
-1.40
-3.17
-4.41
-5.12
-5.50
-5.84
-6.36
-7.12
-8.04
-9.00
-9.97
-10.97
-12.02
-13.03
-13.69
-13.57
-12.20
-9.32
-5.06
0.05
5.20
9.58
12.67
14.36
14.90
14.74
14.28
13.70
12.97
11.98
10.71
9.31
8.00
7.00
6.33
5.76
5.05
3.97
2.48
0.80
-0.78
-1.93
-2.48
-2.50
-2.32
-2.33
-2.87
-4.08
-5.84
-7.87
-9.88
-11.67
-13.16
-14.36
-15.26
-15.77
-15.72
-14.94
-13.34
-10.98
-8.05
-4.82
-1.49
1.76
4.80
7.54
9.82
11.47
12.36
12.42
11.77
10.70
9.54
8.62
8.03
7.67
7.28
6.64
5.66
4.46
3.31
2.44
1.98
1.84
1.81
1.66
1.22
0.39
-0.80
-2.31
-3.97
-5.57
-6.90
-7.84
-8.47
-9.04
-9.81
-10.87
-12.02
-12.87
-13.00
-12.26
-10.68
-8.54
-6.11
-3.53
-0.92
1.59
3.76
5.31
6.04
6.04
5.60
5.14
4.94
5.03
5.24
5.33
5.21
4.95
4.76
4.80
5.12
5.57
5.93
6.00
5.70
5.10
4.34
3.57
2.81
1.93
0.76
-0.85
-2.89
-5.23
-7.59
-9.68
-11.20
-11.96
-11.87
-10.95
-9.33
-7.16
-4.56
-1.58
1.81
5.60
9.64
13.57
16.91
19.20
20.13
19.73
18.29
16.18
13.76
11.25
8.80
6.49
4.45
2.71
1.26
-0.02
-1.30
-2.75
-4.45
-6.36
-8.30
-10.00
-11.24
-11.90
-12.10
-12.13
-12.34
-13.02
-14.21
-15.63
-16.78
-17.12
-16.30
-14.28
-11.27
-7.61
-3.61
0.49
4.43
7.90
10.59
12.27
12.94
12.84
12.32
11.71
11.14
10.49
9.60
8.46
7.23
6.23
5.72
5.72
6.00
6.25
6.19
5.77
5.08
4.25
3.29
2.15
0.72
-0.96
-2.73
-4.37
-5.73
-6.85
-7.96
-9.30
-10.99
-12.84
-14.45
-15.34
-15.16
-13.73
-11.20
-7.81
-3.89
0.26
4.35
8.04
10.98
12.87
13.52
13.02
11.65
9.80
7.85
6.08
4.61
3.50
2.77
2.40
2.37
2.62
2.97
3.22
3.16
2.64
1.63
0.24
-1.38
-3.00
-4.50
-5.84
-7.08
-8.35
-9.78
-11.41
-13.20
-15.01
-16.59
-17.69
-18.00
-17.28
-15.51
-12.80
-9.49
-5.96
-2.53
0.63
3.44
5.89
7.93
9.44
10.29
10.35
9.64
8.35
6.82
5.49
4.69
4.58
4.98
5.57
5.89
5.65
4.84
3.69
2.50
1.50
0.71
-0.05
-0.90
-1.94
-3.07
-4.15
-5.16
-6.19
-7.43
-9.02
-10.79
-12.35
-13.11
-12.68
-10.95
-8.16
-4.70
-1.01
2.61
5.94
8.70
10.64
11.62
11.75
11.40
11.08
11.08
11.35
11.45
10.87
9.32
6.97
4.39
2.27
1.16
1.15
1.92
2.85
3.30
2.88
1.60
-0.17
-1.88
-3.08
-3.63
-3.73
-3.73
-3.94
-4.41
-4.98
-5.40
-5.55
-5.42
-5.14
-4.80
-4.31
-3.53
-2.29
-0.59
1.38
3.29
4.85
5.88
6.34
6.34
6.01
5.44
4.68
3.71
2.53
1.17
-0.29
-1.78
-3.16
-4.30
-5.11
-5.58
-5.85
-6.09
-6.49
-7.12
-7.95
-8.85
-9.70
-10.43
-11.06
-11.62
-12.07
-12.38
-12.47
-12.31
-11.96
-11.47
-10.85
-10.01
-8.74
-6.84
-4.21
-0.95
2.66
6.27
9.59
12.35
14.40
15.65
16.02
15.50
14.12
11.91
8.97
5.49
1.73
-1.88
-4.95
-7.23
-8.67
-9.60
-10.51
-11.93
-14.16
-17.18
-20.65
-24.07
-27.01
-29.19
-30.56
-31.19
-31.12
-30.38
-28.99
-26.93
-24.21
-20.82
-16.73
-11.98
-6.69
-1.11
4.39
9.45
13.84
17.46
20.41
22.83
24.78
26.22
27.05
27.19
26.68
25.68
24.43
23.21
22.20
21.49
21.03
20.68
20.27
19.67
18.78
17.47
15.68
13.36
10.58
7.61
4.76
2.42
0.76
-0.28
-0.98
-1.66
-2.56
-3.75
-5.19
-6.81
-8.58
-10.39
-12.01
-13.00
-12.86
-11.23
-8.17
-4.21
-0.14
3.34
5.93
7.86
9.64
11.69
14.05
16.31
17.94
18.62
18.43
17.82
17.24
16.88
16.53
15.77
14.27
12.09
9.65
7.54
6.10
5.27
4.65
3.73
2.21
0.13
-2.16
-4.32
-6.15
-7.71
-9.21
-10.78
-12.41
-13.93
-15.14
-15.92
-16.32
-16.41
-16.20
-15.59
-14.39
-12.47
-9.85
-6.69
-3.29
0.07
3.23
6.07
8.51
10.43
11.72
12.39
12.61
12.68
12.87
13.31
13.83
14.08
13.73
12.64
10.98
9.12
7.39
5.89
4.40
2.58
0.24
-2.54
-5.36
-7.72
-9.36
-10.33
-11.04
-11.92
-13.17
-14.55
-15.59
-15.86
-15.21
-13.86
-12.20
-10.50
-8.75
-6.69
-4.11
-1.04
2.19
5.07
7.19
8.43
8.98
9.11
9.05
8.81
8.36
7.73
7.05
6.51
6.28
6.36
6.60
6.80
6.77
6.41
5.73
4.77
3.69
2.62
1.75
1.14
0.63
-0.12
-1.52
-3.85
-7.04
-10.65
-14.09
-16.76
-18.37
-18.86
-18.34
-16.92
-14.68
-11.65
-7.97
-3.96
-0.00
3.47
6.15
7.95
8.86
9.00
8.57
7.77
6.84
6.02
5.40
4.96
4.60
4.20
3.75
3.33
3.10
3.21
3.64
4.22
4.62
4.47
3.52
1.70
-0.84
-3.75
-6.61
-9.07
-10.89
-11.99
-12.46
-12.46
-12.13
-11.60
-10.90
-9.96
-8.66
-6.86
-4.52
-1.72
1.27
4.12
6.53
8.33
9.45
9.97
9.95
9.44
8.50
7.25
5.89
4.62
3.63
3.04
2.86
3.06
3.50
3.98
4.24
4.03
3.22
1.90
0.34
-1.13
-2.34
-3.36
-4.47
-5.96
-7.91
-10.05
-12.02
-13.50
-14.37
-14.70
-14.59
-14.01
-12.85
-10.98
-8.42
-5.37
-2.14
0.99
3.88
6.53
8.88
10.79
12.04
12.49
12.14
11.16
9.75
8.08
6.33
4.61
3.05
1.73
0.60
-0.60
-2.27
-4.73
-7.76
-10.68
-12.68
-13.33
-12.96
-12.40
-12.65
-14.33
-17.37
-20.75
-23.14
-23.69
-22.65
-21.07
-20.02
-19.97
-20.69
-21.46
-21.11
-18.75
-14.38
-9.23
-4.98
-2.77
-2.77
-4.36
-6.51
-7.54
-5.42
1.64
14.59
33.53
57.64
84.67
110.76
127.46
126.26
104.48
68.47
29.65
-2.33
-23.11
-33.40
-36.85
-37.45
-37.40
-36.90
-35.56
-33.72
-32.16
-31.31
-30.31
-27.32
-20.54
-8.94
6.82
24.00
38.60
47.52
50.05
47.96
44.12
40.58
37.80
34.64
29.52
20.94
9.15
-3.94
-15.85
-24.58
-29.22
-29.83
-27.16
-21.91
-16.71
-14.20
-16.22
-22.94
-32.42
-41.35
-46.45
-46.16
-41.28
-34.43
-28.28
-24.18
-21.79
-19.64
-16.15
-10.34
-2.07
7.70
17.80
26.43
31.43
30.90
24.33
13.06
0.12
-10.72
-16.93
-17.94
-14.88
-9.57
-3.74
1.55
5.74
8.35
9.09
7.97
5.57
3.15
2.15
3.26
6.39
10.21
12.51
10.94
4.11
-7.03
-18.82
-25.66
-22.58
-7.04
19.08
49.74
76.80
92.94
94.27
80.83
57.30
29.80
3.94
-16.59
-30.25
-37.29
-38.99
-37.20
-33.93
-30.95
-29.75
-31.09
-35.10
-40.99
-47.40
-52.36
-54.34
-52.71
-48.05
-42.10
-37.10
-34.87
-36.09
-39.90
-43.99
-45.39
-41.09
-29.20
-9.32
16.84
45.80
73.10
94.49
107.07
110.02
104.68
93.85
80.57
67.12
54.33
41.85
28.88
14.93
0.50
-13.18
-24.65
-33.09
-38.74
-42.62
-45.73
-48.37
-50.01
-49.67
-46.80
-41.81
-35.94
-30.54
-26.37
-23.15
-20.00
-16.24
-11.89
-7.69
-4.44
-2.40
-1.24
-0.28
0.72
1.27
0.42
-2.73
-8.30
-15.50
-22.76
-28.36
-31.18
-30.98
-28.41
-24.61
-20.80
-17.88
-16.21
-15.69
-15.91
-16.49
-17.34
-18.62
-20.54
-23.07
-25.89
-28.40
-30.48
-31.88
-32.60
-32.72
-32.31
-31.26
-29.46
-26.89
-23.94
-21.38
-19.94
-20.08
-21.67
-23.92
-25.77
-26.12
-24.34
-20.42
-14.91
-8.65
-2.59
2.55
6.63
9.99
13.39
17.63
23.16
29.87
37.06
43.77
49.07
52.38
53.55
52.79
50.42
46.77
42.06
36.35
29.77
22.51
14.92
7.55
0.90
-4.73
-9.33
-13.12
-16.31
-18.79
-20.21
-20.28
-19.12
-17.47
-16.54
-17.43
-20.54
-25.24
-30.12
-33.64
-34.77
-33.40
-30.20
-26.14
-21.92
-17.72
-13.30
-8.34
-2.80
3.05
8.76
13.96
18.54
22.69
26.62
30.45
34.02
36.94
38.91
39.81
39.89
39.59
39.26
39.03
38.70
37.90
36.33
33.92
30.85
27.44
23.96
20.47
16.82
12.80
8.32
3.51
-1.28
-5.61
-9.12
-11.62
-13.10
-13.66
-13.48
-12.73
-11.44
-9.57
-6.96
-3.38
1.32
7.06
13.48
19.95
25.72
30.21
33.09
34.37
34.32
33.25
31.43
29.04
26.24
23.11
19.65
15.82
11.55
6.83
1.83
-3.06
-7.32
-10.43
-12.02
-12.06
-10.91
-9.26
-7.95
-7.61
-8.43
-10.05
-11.75
-12.72
-12.48
-10.97
-8.50
-5.50
-2.23
1.23
4.86
8.46
11.58
13.63
14.11
12.85
10.15
6.59
2.81
-0.67
-3.55
-5.83
-7.65
-9.19
-10.61
-11.97
-13.33
-14.71
-16.11
-17.50
-18.78
-19.76
-20.27
-20.24
-19.75
-19.03
-18.33
-17.69
-16.95
-15.71
-13.58
-10.32
-5.90
-0.47
5.77
12.60
19.72
26.71
33.03
38.16
41.77
43.88
44.82
45.01
44.77
44.13
42.92
40.92
37.98
34.17
29.77
25.09
20.45
16.05
11.94
8.04
4.19
0.18
-4.05
-8.42
-12.70
-16.61
-19.96
-22.74
-25.07
-27.13
-28.99
-30.59
-31.74
-32.23
-31.90
-30.69
-28.67
-25.92
-22.55
-18.70
-14.56
-10.32
-6.24
-2.54
0.56
2.93
4.62
5.89
7.17
8.87
11.25
14.24
17.44
20.36
22.57
23.85
24.21
23.77
22.64
20.94
18.82
16.47
14.12
11.89
9.77
7.55
4.94
1.77
-1.90
-5.79
-9.45
-12.34
-14.08
-14.42
-13.29
-10.85
-7.44
-3.59
0.12
3.24
5.61
7.34
8.74
10.13
11.60
13.08
14.35
15.31
16.06
16.78
17.66
18.72
19.70
20.25
20.05
18.97
17.13
14.83
12.42
10.19
8.28
6.71
5.34
4.01
2.54
0.85
-1.09
-3.26
-5.60
-8.05
-10.50
-12.78
-14.63
-15.86
-16.35
-16.05
-15.06
-13.40
-11.09
-8.13
-4.60
-0.79
2.85
5.82
7.69
8.40
8.23
7.74
7.56
8.04
9.18
10.57
11.66
12.01
11.61
10.76
9.95
9.49
9.33
9.14
8.51
7.22
5.34
3.13
0.86
-1.36
-3.54
-5.70
-7.77
-9.47
-10.55
-10.78
-10.15
-8.80
-6.92
-4.70
-2.25
0.38
3.14
5.97
8.81
11.51
13.88
15.69
16.75
16.98
16.49
15.51
14.35
13.22
12.17
11.23
10.38
9.68
9.20
8.94
8.80
8.58
8.11
7.25
6.01
4.47
2.77
1.03
-0.72
-2.49
-4.28
-6.12
-8.01
-9.90
-11.73
-13.25
-14.20
-14.27
-13.33
-11.47
-9.03
-6.41
-3.92
-1.67
0.46
2.64
4.97
7.32
9.33
10.63
11.00
10.57
9.72
8.95
8.53
8.46
8.44
8.08
7.16
5.77
4.25
2.97
2.11
1.48
0.75
-0.43
-2.06
-3.87
-5.49
-6.69
-7.53
-8.31
-9.35
-10.75
-12.35
-13.78
-14.73
-15.07
-14.80
-14.00
-12.65
-10.65
-7.90
-4.49
-0.68
3.10
6.49
9.29
11.50
13.26
14.66
15.74
16.41
16.62
16.40
15.91
15.37
14.94
14.68
14.50
14.27
13.86
13.21
12.33
11.25
10.00
8.55
6.90
5.06
3.10
1.09
-0.90
-2.87
-4.82
-6.77
-8.64
-10.32
-11.69
-12.69
-13.34
-13.73
-13.94
-13.97
-13.77
-13.15
-11.96
-10.11
-7.61
-4.66
-1.57
1.35
3.80
5.62
6.83
7.49
7.67
7.38
6.64
5.53
4.31
3.26
2.68
2.67
3.09
3.62
3.90
3.71
3.05
2.05
0.89
-0.27
-1.37
-2.41
-3.35
-4.17
-4.86
-5.41
-5.93
-6.52
-7.28
-8.33
-9.74
-11.51
-13.56
-15.70
-17.59
-18.91
-19.40
-18.93
-17.54
-15.30
-12.32
-8.76
-4.87
-1.09
2.07
4.27
5.45
5.91
6.19
6.69
7.51
8.46
9.17
9.37
9.09
8.57
8.10
7.90
7.96
8.09
8.06
7.72
7.03
6.05
4.91
3.73
2.54
1.29
-0.13
-1.77
-3.55
-5.27
-6.70
-7.80
-8.67
-9.59
-10.79
-12.35
-14.08
-15.57
-16.32
-15.93
-14.23
-11.32
-7.57
-3.47
0.46
3.88
6.63
8.72
10.29
11.44
12.19
12.48
12.29
11.68
10.84
10.00
9.28
8.68
8.10
7.37
6.44
5.35
4.21
3.16
2.27
1.54
0.91
0.22
-0.74
-2.09
-3.83
-5.83
-7.81
-9.53
-10.88
-11.90
-12.75
-13.50
-14.04
-14.18
-13.72
-12.63
-11.03
-9.15
-7.07
-4.76
-2.04
1.11
4.49
7.68
10.14
11.51
11.74
11.09
9.97
8.80
7.86
7.23
6.89
6.76
6.75
6.80
6.78
6.60
6.18
5.50
4.58
3.49
2.28
0.95
-0.45
-1.90
-3.28
-4.51
-5.61
-6.70
-8.02
-9.73
-11.81
-14.02
-15.90
-16.99
-16.99
-15.90
-13.96
-11.46
-8.62
-5.54
-2.32
0.91
3.87
6.22
7.67
8.12
7.71
6.78
5.71
4.78
4.06
3.48
2.94
2.42
2.00
1.83
1.99
2.35
2.64
2.50
1.72
0.36
-1.28
-2.81
-3.99
-4.84
-5.59
-6.46
-7.51
-8.65
-9.70
-10.60
-11.39
-12.16
-12.95
-13.62
-13.91
-13.56
-12.41
-10.48
-7.97
-5.17
-2.40
0.05
1.99
3.35
4.19
4.66
4.91
4.97
4.80
4.36
3.68
2.94
2.42
2.25
2.41
2.64
2.66
2.31
1.63
0.78
-0.07
-0.94
-1.94
-3.20
-4.71
-6.23
-7.41
-8.04
-8.11
-7.97
-8.07
-8.67
-9.72
-10.78
-11.24
-10.63
-8.82
-6.14
-3.10
-0.23
2.21
4.20
5.86
7.28
8.42
9.17
9.41
9.21
8.73
8.21
7.80
7.55
7.41
7.26
7.02
6.60
5.94
5.01
3.78
2.32
0.75
-0.80
-2.18
-3.40
-4.53
-5.73
-7.18
-8.92
-10.88
-12.84
-14.51
-15.56
-15.76
-15.07
-13.59
-11.59
-9.34
-7.00
-4.62
-2.16
0.45
3.10
5.56
7.55
8.81
9.32
9.26
8.92
8.55
8.24
7.91
7.47
6.84
6.07
5.32
4.74
4.32
3.92
3.32
2.36
1.06
-0.43
-1.84
-2.99
-3.86
-4.62
-5.54
-6.77
-8.25
-9.65
-10.56
-10.65
-9.85
-8.37
-6.57
-4.76
-3.08
-1.47
0.16
1.84
3.44
4.74
5.57
6.00
6.27
6.72
7.52
8.56
9.50
9.92
9.56
8.45
6.93
5.38
4.19
3.52
3.33
3.40
3.46
3.23
2.51
1.25
-0.48
-2.49
-4.59
-6.63
-8.52
-10.26
-11.77
-12.95
-13.66
-13.81
-13.48
-12.83
-11.99
-10.92
-9.41
-7.20
-4.26
-0.88
2.40
4.99
6.59
7.31
7.55
7.75
8.14
8.65
9.00
8.91
8.31
7.29
6.13
5.09
4.28
3.71
3.22
2.61
1.75
0.61
-0.74
-2.16
-3.55
-4.88
-6.27
-7.83
-9.55
-11.27
-12.66
-13.39
-13.39
-12.78
-11.81
-10.72
-9.53
-8.00
-5.95
-3.26
-0.14
2.96
5.56
7.23
7.79
7.35
6.21
4.80
3.60
2.95
2.94
3.40
3.94
4.20
3.98
3.31
2.39
1.38
0.29
-0.92
-2.27
-3.65
-4.81
-5.49
-5.68
-5.60
-5.74
-6.55
-8.13
-10.17
-11.97
-12.80
-12.18
-10.12
-7.04
-3.64
-0.51
2.00
3.88
5.33
6.52
7.51
8.22
8.55
8.45
8.06
7.57
7.22
7.12
7.25
7.41
7.36
6.83
5.77
4.33
2.81
1.54
0.74
0.34
0.05
-0.51
-1.67
-3.44
-5.59
-7.67
-9.32
-10.37
-10.89
-11.09
-11.09
-10.81
-9.93
-8.21
-5.62
-2.48
0.54
2.81
3.98
4.23
4.13
4.38
5.31
6.76
8.18
8.95
8.80
7.94
6.91
6.25
6.18
6.44
6.54
6.03
4.81
3.19
1.60
0.41
-0.36
-0.97
-1.79
-3.04
-4.71
-6.61
-8.43
-9.92
-10.91
-11.30
-11.08
-10.24
-8.84
-6.97
-4.83
-2.58
-0.38
1.64
3.39
4.81
5.89
6.65
7.20
7.61
7.91
8.09
8.09
7.84
7.35
6.68
5.88
5.02
4.13
3.29
2.53
1.88
1.35
0.86
0.29
-0.50
-1.58
-3.00
-4.70
-6.53
-8.32
-9.87
-11.03
-11.77
-12.12
-12.20
-12.14
-11.97
-11.62
-10.96
-9.78
-7.93
-5.43
-2.46
0.59
3.26
5.18
6.20
6.46
6.36
6.24
6.35
6.63
6.84
6.70
6.07
5.01
3.72
2.42
1.22
0.14
-0.87
-1.84
-2.73
-3.46
-4.03
-4.50
-5.11
-6.10
-7.58
-9.46
-11.41
-13.01
-13.90
-13.98
-13.38
-12.40
-11.32
-10.27
-9.17
-7.85
-6.14
-4.06
-1.78
0.43
2.33
3.81
4.89
5.68
6.32
6.85
7.26
7.46
7.39
7.12
6.77
6.43
6.14
5.82
5.33
4.62
3.79
3.00
2.38
1.97
1.58
0.95
-0.13
-1.72
-3.70
-5.78
-7.68
-9.22
-10.39
-11.23
-11.81
-12.16
-12.22
-11.87
-10.98
-9.44
-7.20
-4.42
-1.39
1.43
3.67
5.14
5.97
6.45
6.90
7.41
7.89
8.10
7.89
7.33
6.68
6.12
5.67
5.12
4.24
3.01
1.67
0.60
0.11
0.20
0.55
0.76
0.45
-0.51
-2.03
-3.87
-5.81
-7.73
-9.56
-11.31
-12.85
-13.97
-14.37
-13.78
-12.08
-9.40
-6.10
-2.68
0.36
2.72
4.25
5.14
5.66
6.17
7.01
8.37
10.17
12.13
13.77
14.65
14.58
13.65
12.24
10.79
9.61
8.76
8.15
7.64
7.17
6.73
6.22
5.51
4.42
2.82
0.80
-1.35
-3.33
-4.94
-6.24
-7.50
-8.95
-10.72
-12.71
-14.63
-16.22
-17.30
-17.79
-17.70
-17.13
-16.14
-14.78
-13.07
-11.00
-8.57
-5.85
-2.94
-0.03
2.63
4.81
6.37
7.34
7.85
8.07
8.14
8.12
8.01
7.90
7.91
8.13
8.57
9.07
9.39
9.32
8.76
7.76
6.46
4.92
3.18
1.27
-0.63
-2.28
-3.49
-4.26
-4.84
-5.57
-6.68
-8.15
-9.73
-11.16
-12.31
-13.25
-14.04
-14.61
-14.72
-14.04
-12.41
-9.96
-7.05
-4.06
-1.25
1.29
3.56
5.51
7.03
8.03
8.49
8.58
8.49
8.39
8.37
8.37
8.34
8.25
8.09
7.85
7.48
6.94
6.27
5.68
5.32
5.24
5.21
4.81
3.67
1.71
-0.81
-3.35
-5.44
-6.90
-7.88
-8.72
-9.69
-10.84
-12.05
-13.14
-14.00
-14.61
-14.90
-14.74
-13.90
-12.20
-9.63
-6.44
-3.09
0.00
2.56
4.55
6.13
7.50
8.80
10.10
11.31
12.34
13.05
13.32
13.11
12.41
11.34
10.13
9.04
8.29
7.96
7.90
7.86
7.55
6.84
5.76
4.48
3.14
1.83
0.52
-0.86
-2.34
-3.92
-5.51
-7.03
-8.46
-9.82
-11.10
-12.27
-13.21
-13.81
-14.00
-13.75
-13.04
-11.86
-10.14
-7.85
-5.08
-2.03
1.04
3.88
6.32
8.31
9.82
10.85
11.40
11.51
11.32
10.99
10.74
10.72
10.91
11.21
11.50
11.59
11.36
10.72
9.62
8.16
6.47
4.80
3.36
2.29
1.54
0.96
0.26
-0.81
-2.41
-4.55
-7.06
-9.64
-11.99
-13.85
-15.15
-15.96
-16.41
-16.62
-16.62
-16.36
-15.72
-14.64
-13.07
-11.05
-8.64
-5.94
-3.07
-0.11
2.82
5.57
7.94
9.71
10.68
10.86
10.46
9.91
9.63
9.86
10.44
10.96
10.98
10.28
9.05
7.67
6.50
5.70
5.11
4.44
3.51
2.28
0.89
-0.46
-1.72
-2.92
-4.20
-5.70
-7.42
-9.26
-11.09
-12.69
-13.91
-14.69
-15.04
-15.10
-15.01
-14.79
-14.31
-13.36
-11.74
-9.38
-6.47
-3.30
-0.23
2.49
4.76
6.50
7.69
8.31
8.34
7.90
7.29
6.85
6.89
7.49
8.41
9.28
9.69
9.43
8.53
7.19
5.68
4.21
2.93
1.95
1.35
1.07
0.96
0.75
0.11
-1.13
-2.90
-4.93
-6.87
-8.42
-9.60
-10.54
-11.44
-12.32
-13.01
-13.18
-12.56
-11.01
-8.61
-5.58
-2.20
1.23
4.44
7.14
9.08
10.16
10.48
10.35
10.22
10.43
11.06
11.90
12.51
12.48
11.62
10.06
8.18
6.45
5.20
4.56
4.34
4.18
3.67
2.57
0.80
-1.44
-3.82
-6.01
-7.77
-9.00
-9.70
-10.01
-10.13
-10.36
-10.88
-11.70
-12.61
-13.19
-13.04
-11.90
-9.79
-6.97
-3.86
-0.83
1.80
3.88
5.39
6.44
7.25
8.06
9.05
10.17
11.18
11.73
11.59
10.87
9.88
9.06
8.64
8.53
8.38
7.83
6.74
5.34
4.05
3.21
2.83
2.57
1.90
0.42
-1.95
-4.82
-7.63
-9.90
-11.43
-12.39
-13.13
-13.95
-14.83
-15.43
-15.22
-13.81
-11.12
-7.48
-3.46
0.33
3.51
6.01
7.98
9.63
11.01
11.99
12.36
11.99
10.96
9.58
8.19
7.07
6.27
5.67
5.04
4.22
3.17
2.01
0.90
-0.05
-0.84
-1.61
-2.48
-3.54
-4.83
-6.29
-7.82
-9.32
-10.69
-11.87
-12.81
-13.51
-13.96
-14.11
-13.82
-12.93
-11.34
-9.07
-6.33
-3.46
-0.73
1.74
4.02
6.24
8.42
10.40
11.88
12.56
12.34
11.40
10.08
8.76
7.69
6.86
6.19
5.57
4.95
4.38
3.92
3.59
3.32
2.95
2.22
0.98
-0.87
-3.18
-5.60
-7.75
-9.38
-10.44
-11.14
-11.74
-12.34
-12.81
-12.77
-11.81
-9.75
-6.74
-3.25
0.19
3.17
5.56
7.38
8.76
9.79
10.45
10.71
10.56
10.13
9.62
9.24
9.12
9.19
9.26
9.06
8.43
7.36
5.98
4.49
3.03
1.63
0.20
-1.35
-3.05
-4.85
-6.60
-8.18
-9.49
-10.52
-11.35
-12.14
-12.98
-13.89
-14.69
-15.01
-14.39
-12.53
-9.39
-5.31
-0.90
3.28
6.82
9.59
11.72
13.31
14.42
14.93
14.68
13.61
11.89
9.91
8.16
7.01
6.55
6.57
6.69
6.58
6.11
5.37
4.54
3.66
2.56
0.94
-1.38
-4.26
-7.23
-9.64
-11.02
-11.34
-11.00
-10.63
-10.78
-11.56
-12.68
-13.53
-13.45
-12.09
-9.48
-5.99
-2.17
1.49
4.68
7.35
9.57
11.41
12.86
13.80
14.07
13.67
12.78
11.72
10.86
10.40
10.30
10.34
10.22
9.77
8.95
7.85
6.55
5.08
3.43
1.61
-0.33
-2.25
-4.03
-5.63
-7.10
-8.52
-9.97
-11.47
-12.97
-14.36
-15.49
-16.16
-16.17
-15.36
-13.67
-11.20
-8.22
-5.01
-1.80
1.25
4.09
6.67
8.83
10.41
11.25
11.35
10.92
10.28
9.70
9.36
9.16
8.89
8.37
7.51
6.48
5.53
4.84
4.37
3.90
3.08
1.74
-0.09
-2.21
-4.31
-6.20
-7.83
-9.28
-10.62
-11.89
-12.98
-13.82
-14.34
-14.48
-14.21
-13.40
-11.93
-9.74
-6.92
-3.72
-0.46
2.64
5.43
7.86
9.86
11.26
11.84
11.51
10.39
8.89
7.53
6.76
6.71
7.13
7.53
7.39
6.45
4.77
2.67
0.60
-1.09
-2.27
-3.00
-3.56
-4.25
-5.25
-6.57
-8.06
-9.57
-11.04
-12.52
-14.03
-15.44
-16.28
-16.03
-14.27
-11.00
-6.81
-2.55
0.96
3.32
4.76
5.92
7.42
9.50
11.91
14.03
15.26
15.28
14.19
12.45
10.62
9.11
8.07
7.42
6.97
6.54
6.04
5.43
4.70
3.78
2.58
0.98
-1.02
-3.32
-5.68
-7.84
-9.52
-10.60
-11.12
-11.25
-11.29
-11.40
-11.56
-11.53
-10.95
-9.48
-7.06
-3.86
-0.24
3.38
6.76
9.74
12.23
14.11
15.16
15.25
14.45
13.06
11.51
10.23
9.39
8.83
8.27
7.34
5.92
4.14
2.28
0.61
-0.69
-1.68
-2.52
-3.37
-4.29
-5.29
-6.31
-7.38
-8.58
-10.02
-11.71
-13.53
-15.18
-16.36
-16.79
-16.32
-14.95
-12.77
-10.02
-6.93
-3.72
-0.56
2.55
5.65
8.78
11.79
14.36
16.04
16.52
15.80
14.23
12.41
10.84
9.78
9.18
8.79
8.41
7.95
7.44
6.89
6.21
5.19
3.69
1.70
-0.61
-2.93
-4.99
-6.69
-8.12
-9.47
-11.00
-12.78
-14.79
-16.82
-18.50
-19.51
-19.57
-18.56
-16.55
-13.70
-10.24
-6.47
-2.63
0.99
4.17
6.74
8.67
10.02
10.92
11.51
11.86
11.99
11.90
11.63
11.26
10.87
10.49
10.10
9.58
8.90
8.06
7.10
6.04
4.88
3.55
2.06
0.49
-0.97
-2.13
-2.91
-3.51
-4.20
-5.28
-6.88
-8.85
-10.89
-12.68
-13.91
-14.47
-14.28
-13.27
-11.47
-8.93
-5.82
-2.45
0.89
3.92
6.46
8.43
9.73
10.30
10.18
9.53
8.64
7.87
7.44
7.36
7.46
7.47
7.19
6.58
5.75
4.90
4.15
3.46
2.62
1.42
-0.27
-2.37
-4.59
-6.59
-8.10
-9.04
-9.64
-10.24
-11.16
-12.54
-14.17
-15.66
-16.57
-16.60
-15.68
-13.92
-11.49
-8.57
-5.29
-1.78
1.85
5.44
8.79
11.65
13.77
15.03
15.44
15.19
14.55
13.73
12.85
11.83
10.59
9.13
7.61
6.30
5.43
5.01
4.79
4.42
3.61
2.34
0.85
-0.60
-1.77
-2.66
-3.43
-4.25
-5.22
-6.37
-7.62
-8.96
-10.42
-12.02
-13.67
-15.08
-15.83
-15.48
-13.83
-10.98
-7.37
-3.54
0.05
3.16
5.79
8.05
10.05
11.72
12.98
13.67
13.82
13.56
13.06
12.49
11.87
11.15
10.26
9.13
7.79
6.34
4.95
3.79
2.96
2.42
2.02
1.50
0.63
-0.61
-2.07
-3.49
-4.67
-5.61
-6.51
-7.64
-9.20
-11.15
-13.25
-15.17
-16.61
-17.41
-17.50
-16.85
-15.35
-12.96
-9.66
-5.63
-1.25
3.01
6.66
9.38
11.07
11.86
11.99
11.75
11.31
10.73
10.02
9.19
8.33
7.56
6.98
6.62
6.39
6.17
5.78
5.18
4.40
3.56
2.81
2.23
1.77
1.25
0.49
-0.66
-2.21
-4.03
-5.96
-7.81
-9.52
-11.08
-12.51
-13.78
-14.73
-15.18
-14.94
-13.91
-12.10
-9.59
-6.55
-3.24
0.05
3.02
5.40
7.11
8.19
8.81
9.18
9.44
9.60
9.58
9.28
8.66
7.80
6.84
5.97
5.27
4.69
4.13
3.47
2.67
1.76
0.84
-0.08
-1.01
-1.98
-3.01
-4.00
-4.89
-5.69
-6.51
-7.60
-9.12
-11.07
-13.20
-15.13
-16.41
-16.72
-15.89
-13.95
-11.07
-7.54
-3.71
0.01
3.27
5.83
7.62
8.76
9.42
9.82
10.14
10.47
10.81
11.09
11.17
10.85
10.02
8.65
6.88
4.97
3.18
1.78
0.89
0.50
0.48
0.62
0.72
0.62
0.19
-0.58
-1.66
-3.03
-4.66
-6.50
-8.50
-10.53
-12.44
-14.05
-15.24
-15.87
-15.85
-15.09
-13.49
-11.03
-7.82
-4.16
-0.49
2.83
5.53
7.59
9.14
10.32
11.20
11.74
11.81
11.48
10.92
10.48
10.43
10.82
11.34
11.56
11.06
9.72
7.78
5.73
4.02
2.89
2.26
1.84
1.31
0.43
-0.89
-2.59
-4.62
-6.95
-9.51
-12.15
-14.67
-16.83
-18.38
-19.13
-19.01
-18.09
-16.53
-14.52
-12.24
-9.80
-7.27
-4.62
-1.75
1.32
4.38
7.06
8.85
9.40
8.68
6.98
5.06
3.77
3.55
4.23
5.10
5.36
4.53
2.61
0.03
-2.39
-3.80
-3.83
-2.96
-2.26
-2.76
-5.02
-8.90
-13.74
-18.16
-20.71
-20.70
-18.80
-16.65
-15.84
-17.14
-20.31
-24.38
-27.51
-27.31
-21.61
-9.10
10.38
35.86
64.95
93.63
114.17
118.14
102.17
71.51
36.59
6.59
-14.13
-25.70
-30.54
-31.30
-29.20
-24.17
-16.43
-7.60
-0.33
3.07
1.83
-3.05
-9.54
-15.15
-17.84
-16.78
-12.43
-5.94
1.49
8.72
15.01
19.27
20.43
17.84
11.34
1.23
-11.65
-25.92
-39.91
-52.13
-61.37
-66.57
-66.94
-62.38
-54.58
-44.33
-33.15
-22.62
-13.86
-7.42
-3.17
-0.52
1.27
2.85
4.80
7.29
10.14
12.82
14.67
15.27
14.72
13.43
11.93
10.71
9.84
9.15
8.49
7.90
7.52
7.77
8.97
11.08
13.98
17.65
22.33
28.39
34.47
38.73
39.68
36.91
31.19
23.94
16.56
10.13
5.26
1.99
0.24
-0.26
0.02
0.85
1.76
2.56
3.34
4.21
5.05
5.63
5.59
4.63
2.65
-0.34
-4.14
-8.47
-13.06
-17.06
-19.15
-18.14
-13.59
-6.15
2.53
10.53
16.46
19.81
21.16
21.57
22.11
23.53
26.22
30.23
35.36
41.10
46.57
50.82
53.09
53.09
51.16
47.97
44.23
40.53
37.26
34.57
32.42
30.35
27.53
23.00
16.05
6.71
-4.05
-14.61
-23.36
-29.34
-32.62
-33.98
-34.37
-34.47
-34.44
-34.06
-33.04
-31.09
-27.98
-23.50
-17.40
-9.61
-0.42
9.53
19.35
28.23
35.77
41.91
46.98
51.38
55.37
59.06
62.37
65.03
66.71
67.10
66.18
64.42
62.64
61.77
62.25
63.74
65.07
64.86
62.00
56.34
48.62
40.08
31.86
24.67
18.70
13.84
10.08
7.39
5.61
4.21
2.32
-0.90
-5.87
-12.43
-19.85
-27.27
-34.06
-39.97
-45.09
-49.68
-53.98
-58.29
-62.93
-68.30
-74.74
-82.14
-89.86
-96.80
-101.75
-103.73
-102.47
-98.26
-91.87
-84.12
-75.60
-66.69
-57.57
-48.42
-39.50
-31.08
-23.54
-17.05
-11.58
-7.02
-3.50
-1.13
0.19
1.01
2.08
3.58
5.09
5.74
4.64
1.34
-3.67
-9.26
-14.04
-16.96
-18.44
-19.28
-20.09
-20.94
-21.61
-21.65
-20.95
-19.41
-17.03
-15.56
-16.12
-18.33
-20.88
-22.77
-23.75
-24.95
-27.64
-32.73
-43.41
-60.31
-80.07
-97.66
-109.83
-116.12
-119.44
-122.36
-125.74
-133.79
-147.41
-162.75
-174.30
-178.78
-175.87
-168.98
-161.05
-154.01
-155.62
-170.17
-194.91
-222.95
-248.29
-267.75
-283.29
-296.51
-267.11
-180.93
-62.08
50.07
135.29
188.98
231.54
273.02
315.73
357.82
387.11
393.00
373.91
329.20
267.53
205.06
153.55
117.49
95.23
78.11
60.59
43.67
31.29
26.32
28.52
33.12
36.41
37.11
32.86
23.84
13.42
5.90
4.40
9.13
15.84
21.76
25.31
25.06
21.65
17.63
15.84
18.38
25.30
34.37
43.24
50.04
53.38
53.03
49.84
45.44
41.65
39.68
39.73
41.56
44.52
47.74
50.63
52.61
53.28
52.62
50.98
48.87
46.85
44.76
42.22
38.75
33.93
27.77
20.93
14.66
10.14
7.85
6.44
4.35
0.55
-5.00
-11.54
-17.96
-23.39
-27.69
-31.58
-37.32
-46.34
-58.59
-73.04
-88.68
-104.79
-120.93
-136.62
-151.03
-164.29
-175.30
-181.80
-181.75
-174.63
-161.71
-145.33
-128.15
-103.38
-70.91
-35.79
-3.76
23.03
45.39
64.57
80.92
94.06
103.66
108.55
109.42
108.29
106.88
105.47
102.78
97.34
88.91
79.09
69.74
63.44
61.97
64.81
69.00
70.59
66.92
57.96
46.13
34.10
23.97
16.12
9.21
1.50
-7.41
-15.68
-20.28
-19.22
-13.24
-5.43
0.65
2.98
2.10
0.00
-1.20
-1.14
-1.44
-4.30
-10.56
-18.39
-23.88
-23.15
-14.57
0.26
17.25
31.42
39.74
42.06
40.50
37.87
35.80
34.30
32.11
28.05
22.03
15.07
8.59
3.36
-0.99
-5.80
-12.29
-20.91
-30.71
-39.80
-46.09
-48.16
-45.93
-40.57
-33.98
-28.01
-23.91
-22.01
-21.87
-22.70
-23.61
-23.94
-23.42
-22.14
-20.45
-18.92
-17.82
-17.29
-17.41
-18.11
-19.49
-21.54
-24.25
-27.27
-29.84
-31.11
-30.49
-27.99
-24.31
-20.56
-17.50
-15.20
-13.16
-10.25
-5.99
-0.62
4.75
8.61
9.94
8.67
5.81
2.97
1.75
2.91
6.01
9.62
11.85
11.34
7.84
2.30
-3.56
-7.94
-9.72
-8.37
-3.93
3.00
11.44
19.71
25.64
27.30
23.99
17.11
9.67
5.49
6.51
11.85
18.24
22.21
22.07
18.76
15.22
14.37
17.55
23.83
31.10
37.37
41.77
44.58
46.60
48.47
50.13
51.42
51.44
49.94
47.13
43.40
38.95
33.48
26.40
16.72
4.51
-9.78
-25.00
-39.50
-51.70
-60.55
-65.49
-66.73
-65.05
-61.42
-57.08
-52.92
-48.76
-44.23
-38.95
-32.88
-26.57
-20.89
-16.54
-13.84
-12.19
-10.63
-8.42
-5.34
-1.77
1.52
3.90
5.10
5.24
4.74
4.10
3.55
3.16
2.80
2.26
1.35
-0.07
-1.90
-3.64
-4.79
-4.89
-3.67
-1.33
1.80
5.24
8.45
10.88
12.09
11.65
9.48
6.02
2.47
0.56
1.65
6.04
12.73
19.62
24.54
26.05
24.15
20.20
16.11
13.49
12.67
13.14
14.37
16.23
19.06
22.74
27.13
32.14
37.85
43.61
48.90
53.89
59.14
64.94
71.63
78.71
85.58
91.63
94.93
93.69
87.80
78.69
67.99
57.48
47.04
35.63
21.88
2.77
-23.76
-56.70
-92.68
-127.88
-158.53
-183.61
-203.25
-206.57
-188.76
-155.18
-116.97
-82.89
-61.85
-49.52
-42.18
-37.34
-33.73
-29.52
-24.98
-19.73
-12.80
-3.68
8.07
20.95
33.46
44.67
52.93
57.15
58.01
57.28
56.35
56.24
56.16
55.22
53.02
48.96
42.86
35.60
28.65
23.08
19.68
18.01
17.48
17.64
17.76
17.13
15.59
13.38
10.81
8.33
6.02
3.86
1.82
-0.31
-2.80
-5.71
-8.79
-11.72
-14.14
-15.94
-17.10
-17.62
-17.56
-17.02
-16.13
-15.10
-14.20
-13.73
-13.99
-15.11
-16.97
-19.29
-21.72
-24.05
-26.49
-29.37
-33.11
-37.88
-43.39
-49.09
-54.47
-59.23
-63.41
-67.28
-70.96
-74.39
-77.24
-79.16
-79.92
-79.44
-77.68
-74.62
-70.23
-64.62
-58.14
-51.26
-44.32
-37.48
-30.64
-23.53
-16.01
-8.08
0.13
8.32
16.24
23.79
30.82
37.17
42.56
46.64
49.20
50.35
50.61
50.69
51.23
52.33
53.47
53.72
52.30
49.26
45.55
42.60
41.56
42.59
44.79
46.62
46.78
44.90
41.62
38.08
35.25
33.27
31.54
29.18
25.63
21.37
17.61
15.90
17.20
21.19
26.41
31.09
34.00
35.04
35.01
34.48
33.03
29.28
21.65
9.74
-5.03
-19.79
-31.48
-38.28
-40.41
-39.57
-37.75
-36.22
-35.11
-33.80
-31.75
-28.87
-25.58
-22.44
-19.68
-17.11
-14.38
-11.06
-7.08
-2.69
1.74
5.83
9.43
12.68
15.86
19.23
22.84
26.44
29.58
31.84
32.89
32.64
31.23
28.92
26.05
22.88
19.47
15.73
11.53
6.85
1.91
-2.79
-6.63
-9.08
-9.97
-9.59
-8.52
-7.47
-6.98
-7.27
-8.31
-9.88
-11.71
-13.64
-15.53
-17.35
-19.08
-20.69
-22.15
-23.38
-24.26
-24.68
-24.50
-23.67
-22.27
-20.53
-18.74
-17.15
-15.82
-14.55
-13.06
-11.07
-8.56
-5.85
-3.45
-1.81
-1.16
-1.31
-1.82
-2.29
-2.51
-2.61
-2.90
-3.54
-4.50
-5.47
-6.06
-6.02
-5.32
-4.04
-2.34
-0.24
2.26
5.07
7.90
10.25
11.54
11.46
10.09
7.83
5.34
3.08
1.24
-0.28
-1.69
-3.17
-4.72
-6.22
-7.49
-8.40
-8.90
-8.96
-8.61
-7.94
-7.18
-6.69
-6.86
-7.90
-9.67
-11.75
-13.50
-14.45
-14.47
-13.81
-13.00
-12.56
-12.73
-13.40
-14.27
-14.85
-14.97
-14.70
-14.36
-14.42
-15.12
-16.42
-18.01
-19.50
-20.58
-21.22
-21.50
-21.57
-21.37
-20.62
-18.89
-15.82
-11.28
-5.54
0.84
7.08
12.34
16.13
18.34
19.38
20.05
21.22
23.47
26.97
31.52
36.63
41.50
45.02
45.80
42.61
34.96
23.55
10.40
-1.84
-10.88
-15.69
-16.81
-15.85
-14.52
-13.91
-14.15
-14.77
-15.31
-15.68
-16.17
-17.10
-18.37
-19.42
-19.48
-17.77
-14.12
-9.05
-3.58
1.16
4.44
6.24
7.12
7.92
9.24
11.15
13.26
15.02
16.05
16.30
16.06
15.67
15.34
15.04
14.53
13.55
11.97
9.80
7.25
4.58
2.01
-0.32
-2.45
-4.54
-6.77
-9.29
-12.10
-15.07
-18.03
-20.80
-23.25
-25.26
-26.70
-27.40
-27.20
-25.99
-23.81
-20.91
-17.66
-14.44
-11.51
-8.94
-6.66
-4.53
-2.41
-0.31
1.78
3.93
6.31
9.18
12.83
17.35
22.63
28.48
34.64
40.97
47.32
53.39
58.56
61.98
62.87
60.96
56.64
50.95
45.21
40.40
36.89
34.48
32.63
30.76
28.39
25.09
20.41
13.95
5.59
-4.21
-14.35
-23.44
-30.15
-33.70
-34.08
-31.85
-27.87
-23.01
-17.93
-13.18
-9.19
-6.21
-4.35
-3.39
-2.88
-2.39
-1.57
-0.24
1.39
2.96
4.12
4.63
4.56
4.23
4.04
4.30
4.99
5.70
5.91
5.16
3.37
0.89
-1.72
-3.99
-5.71
-6.96
-7.95
-8.72
-9.19
-9.18
-8.68
-7.98
-7.50
-7.54
-8.05
-8.58
-8.45
-7.15
-4.62
-1.24
2.28
5.36
7.70
9.47
11.02
12.71
14.63
16.59
18.26
19.39
19.93
20.02
19.91
19.80
19.77
19.80
19.86
19.97
20.18
20.49
20.74
20.67
20.01
18.57
16.42
13.81
11.08
8.54
6.30
4.32
2.47
0.60
-1.37
-3.42
-5.55
-7.75
-10.08
-12.61
-15.34
-18.15
-20.79
-22.94
-24.29
-24.65
-23.90
-22.03
-19.17
-15.52
-11.40
-7.17
-3.11
0.58
3.81
6.64
9.15
11.39
13.56
15.82
18.38
21.29
24.35
27.13
29.06
29.65
28.84
26.95
24.66
22.78
21.91
22.26
23.45
24.55
24.39
22.05
17.29
10.78
3.89
-1.93
-5.79
-7.69
-8.46
-9.12
-10.41
-12.55
-15.27
-18.11
-20.75
-23.16
-25.36
-27.32
-28.87
-29.78
-29.89
-29.17
-27.85
-26.28
-24.77
-23.47
-22.33
-21.03
-19.28
-16.91
-14.08
-11.30
-9.23
-8.42
-9.03
-10.79
-13.05
-15.04
-16.26
-16.69
-16.78
-17.21
-18.54
-20.94
-24.02
-27.10
-29.48
-30.78
-31.09
-30.68
-29.75
-28.22
-25.68
-21.72
-16.20
-9.44
-2.19
4.75
10.79
15.71
19.63
22.79
25.33
27.24
28.49
29.05
29.10
28.89
28.68
28.67
28.92
29.31
29.62
29.57
28.96
27.80
26.38
25.11
24.40
24.48
25.19
26.15
26.83
26.77
25.80
23.97
21.53
18.80
16.03
13.36
10.89
8.57
6.40
4.46
2.83
1.66
0.95
0.51
0.01
-0.91
-2.51
-4.74
-7.35
-10.00
-12.30
-13.99
-14.94
-15.06
-14.34
-12.78
-10.41
-7.41
-4.06
-0.65
2.49
5.21
7.48
9.27
10.62
11.50
11.83
11.55
10.62
9.03
6.85
4.18
1.17
-2.06
-5.37
-8.64
-11.79
-14.82
-17.81
-20.82
-23.89
-26.95
-29.91
-32.63
-35.05
-37.13
-38.90
-40.31
-41.23
-41.49
-40.88
-39.28
-36.69
-33.18
-28.82
-23.71
-17.90
-11.54
-4.88
1.87
8.42
14.57
20.14
24.88
28.59
31.09
32.36
32.56
32.01
30.97
29.69
28.36
27.08
25.97
25.09
24.38
23.65
22.68
21.29
19.58
17.74
15.96
14.33
12.77
11.16
9.44
7.60
5.69
3.74
1.67
-0.57
-2.95
-5.29
-7.30
-8.70
-9.40
-9.49
-9.23
-8.92
-8.66
-8.44
-8.10
-7.47
-6.46
-5.12
-3.56
-1.93
-0.42
0.86
1.79
2.36
2.63
2.73
2.77
2.79
2.66
2.27
1.58
0.73
0.02
-0.31
-0.33
-0.32
-0.73
-1.73
-3.10
-4.36
-5.05
-5.06
-4.75
-4.80
-5.73
-7.74
-10.55
-13.60
-16.36
-18.50
-19.95
-20.76
-20.94
-20.37
-19.00
-16.86
-14.21
-11.48
-9.04
-7.10
-5.66
-4.49
-3.50
-2.73
-2.43
-2.86
-4.06
-5.77
-7.55
-8.93
-9.67
-9.89
-9.95
-10.30
-11.41
-13.48
-16.52
-20.23
-23.99
-27.10
-28.98
-29.30
-28.14
-25.81
-22.72
-19.33
-15.94
-12.77
-9.94
-7.45
-5.11
-2.69
0.08
3.41
7.26
11.53
15.94
20.17
23.96
27.10
29.44
30.95
31.68
31.72
31.19
30.19
28.82
27.30
25.85
24.63
23.70
22.92
22.04
20.84
19.17
17.11
14.85
12.58
10.47
8.59
6.90
5.27
3.46
1.22
-1.56
-4.83
-8.24
-11.27
-13.41
-14.36
-14.09
-12.83
-10.86
-8.39
-5.51
-2.28
1.19
4.70
7.93
10.63
12.66
14.05
14.91
15.38
15.54
15.39
14.89
14.09
13.06
11.96
11.04
10.45
10.25
10.36
10.49
10.30
9.55
8.22
6.59
5.08
4.02
3.48
3.22
2.79
1.88
0.36
-1.62
-3.72
-5.66
-7.31
-8.68
-9.86
-10.87
-11.55
-11.70
-11.16
-9.90
-8.08
-5.99
-3.87
-1.89
-0.08
1.55
2.98
4.06
4.68
4.70
4.15
3.15
1.88
0.60
-0.52
-1.34
-1.79
-1.99
-2.12
-2.37
-2.81
-3.33
-3.63
-3.49
-2.89
-2.03
-1.33
-1.10
-1.48
-2.38
-3.57
-4.85
-6.17
-7.55
-9.12
-10.95
-13.04
-15.35
-17.72
-19.91
-21.65
-22.71
-23.04
-22.82
-22.34
-21.91
-21.70
-21.72
-21.88
-22.12
-22.37
-22.53
-22.42
-21.69
-19.98
-17.10
-13.07
-8.16
-2.74
2.93
8.65
14.34
19.90
25.17
29.94
34.02
37.33
39.91
41.86
43.22
43.96
43.91
42.93
40.97
38.11
34.53
30.52
26.28
21.96
17.53
12.85
7.74
2.11
-3.98
-10.26
-16.26
-21.41
-25.14
-27.07
-27.22
-25.90
-23.71
-21.26
-18.88
-16.79
-14.96
-13.46
-12.42
-12.00
-12.23
-13.01
-14.08
-15.17
-16.24
-17.32
-18.55
-19.97
-21.48
-22.85
-23.75
-23.79
-22.62
-20.03
-16.04
-11.02
-5.53
-0.17
4.62
8.80
12.61
16.36
20.19
24.09
27.89
31.44
34.76
37.88
40.73
43.06
44.34
44.10
42.11
38.46
33.63
28.30
23.11
18.43
14.30
10.53
6.83
2.98
-1.01
-4.90
-8.36
-11.06
-12.83
-13.69
-13.82
-13.44
-12.65
-11.47
-9.79
-7.48
-4.50
-0.84
3.43
8.18
13.20
18.18
22.69
26.23
28.39
28.95
27.97
25.81
22.99
19.93
16.96
14.12
11.31
8.39
5.39
2.42
-0.31
-2.64
-4.63
-6.55
-8.82
-11.72
-15.28
-19.12
-22.55
-24.86
-25.60
-24.78
-22.84
-20.51
-18.44
-17.03
-16.33
-16.10
-16.08
-16.11
-16.21
-16.46
-16.91
-17.42
-17.72
-17.53
-16.65
-15.10
-13.10
-10.97
-9.02
-7.38
-5.95
-4.44
-2.47
0.27
3.78
7.78
11.71
14.95
17.07
17.93
17.69
16.67
15.21
13.50
11.71
9.96
8.44
7.43
7.19
7.87
9.43
11.54
13.73
15.55
16.68
17.10
17.06
16.84
16.60
16.22
15.39
13.76
11.20
7.82
4.01
0.21
-3.28
-6.32
-8.95
-11.21
-13.16
-14.88
-16.45
-17.93
-19.34
-20.56
-21.39
-21.65
-21.28
-20.40
-19.31
-18.34
-17.73
-17.57
-17.77
-18.16
-18.55
-18.77
-18.77
-18.52
-18.07
-17.49
-16.79
-15.94
-14.91
-13.71
-12.39
-11.13
-10.13
-9.52
-9.31
-9.33
-9.32
-9.10
-8.58
-7.80
-6.93
-6.03
-5.11
-4.10
-2.84
-1.24
0.73
3.02
5.36
7.52
9.27
10.53
11.41
12.09
12.68
13.15
13.34
13.05
12.27
11.16
9.96
8.78
7.45
5.72
3.42
0.75
-1.71
-3.19
-3.15
-1.48
1.43
4.93
8.37
11.40
13.93
16.11
18.08
19.86
21.40
22.56
23.22
23.43
23.26
22.85
22.34
21.73
21.00
20.07
18.91
17.58
16.24
15.05
14.12
13.49
13.06
12.64
11.99
10.92
9.36
7.47
5.51
3.81
2.57
1.79
1.26
0.63
-0.47
-2.25
-4.75
-7.77
-10.92
-13.72
-15.70
-16.48
-15.93
-14.19
-11.65
-8.82
-6.15
-3.89
-2.10
-0.68
0.51
1.55
2.38
2.87
2.89
2.42
1.61
0.71
0.02
-0.30
-0.23
0.03
0.26
0.27
0.03
-0.33
-0.64
-0.77
-0.75
-0.73
-0.87
-1.20
-1.54
-1.64
-1.30
-0.58
0.16
0.49
0.12
-0.98
-2.49
-3.99
-5.17
-5.96
-6.51
-7.14
-8.00
-9.08
-10.20
-11.10
-11.57
-11.47
-10.67
-9.12
-6.79
-3.79
-0.56
2.32
4.36
5.36
5.62
5.82
6.67
8.53
11.21
14.14
16.66
18.43
19.48
20.13
20.62
20.92
20.86
20.20
18.92
17.21
15.34
13.47
11.57
9.42
6.82
3.72
0.27
-3.27
-6.64
-9.75
-12.60
-15.30
-17.94
-20.53
-22.99
-25.13
-26.74
-27.59
-27.51
-26.46
-24.60
-22.18
-19.49
-16.69
-13.79
-10.68
-7.28
-3.61
0.14
3.67
6.73
9.14
10.86
11.99
12.68
13.16
13.64
14.31
15.22
16.28
17.19
17.65
17.45
16.55
15.13
13.46
11.78
10.26
8.98
7.97
7.23
6.73
6.26
5.54
4.27
2.30
-0.20
-2.78
-4.85
-6.00
-6.17
-5.62
-4.77
-3.96
-3.27
-2.54
-1.61
-0.37
1.11
2.65
4.11
5.47
6.79
8.14
9.50
10.69
11.42
11.43
10.60
8.96
6.68
3.96
1.00
-2.00
-4.84
-7.25
-9.02
-9.97
-10.19
-10.04
-9.96
-10.36
-11.37
-12.79
-14.27
-15.45
-16.14
-16.36
-16.25
-15.97
-15.68
-15.49
-15.46
-15.70
-16.22
-16.96
-17.79
-18.50
-18.84
-18.66
-17.75
-15.98
-13.28
-9.67
-5.34
-0.69
3.84
7.79
10.90
13.09
14.55
15.50
16.18
16.66
16.88
16.75
16.25
15.47
14.61
13.77
12.91
11.85
10.32
8.17
5.49
2.53
-0.38
-2.97
-5.14
-6.93
-8.40
-9.60
-10.52
-11.09
-11.29
-11.11
-10.61
-9.90
-9.08
-8.24
-7.34
-6.32
-5.06
-3.53
-1.81
-0.06
1.46
2.53
3.08
3.18
3.07
2.98
3.09
3.37
3.64
3.64
3.21
2.40
1.55
1.05
1.21
2.04
3.26
4.47
5.34
5.72
5.60
5.02
3.90
2.17
-0.20
-3.00
-5.81
-8.15
-9.71
-10.54
-11.06
-11.75
-12.93
-14.63
-16.56
-18.22
-19.18
-19.13
-18.01
-15.95
-13.20
-10.01
-6.63
-3.25
-0.04
2.78
4.97
6.29
6.66
6.23
5.38
4.60
4.32
4.68
5.46
6.24
6.57
6.28
5.47
4.47
3.59
2.99
2.59
2.20
1.68
1.02
0.33
-0.30
-0.90
-1.60
-2.62
-4.05
-5.79
-7.61
-9.25
-10.49
-11.30
-11.68
-11.67
-11.23
-10.28
-8.80
-6.78
-4.36
-1.72
0.99
3.62
6.12
8.36
10.22
11.61
12.46
12.83
12.83
12.62
12.28
11.86
11.32
10.66
9.86
8.87
7.68
6.24
4.58
2.77
0.95
-0.71
-2.08
-3.17
-4.07
-4.98
-6.06
-7.38
-8.97
-10.73
-12.55
-14.26
-15.62
-16.34
-16.14
-14.82
-12.37
-9.08
-5.41
-1.91
1.01
3.22
4.86
6.22
7.52
8.85
10.10
11.10
11.71
11.91
11.80
11.50
11.15
10.81
10.49
10.19
9.90
9.58
9.20
8.68
7.94
6.95
5.73
4.32
2.83
1.28
-0.34
-2.03
-3.77
-5.50
-7.08
-8.42
-9.51
-10.45
-11.40
-12.43
-13.48
-14.29
-14.50
-13.82
-12.19
-9.79
-6.89
-3.81
-0.78
2.04
4.47
6.34
7.53
8.05
8.07
7.91
7.88
8.10
8.51
8.91
9.18
9.29
9.35
9.45
9.54
9.50
9.19
8.60
7.79
6.85
5.85
4.73
3.43
1.89
0.21
-1.53
-3.19
-4.70
-6.07
-7.35
-8.59
-9.85
-11.19
-12.64
-14.20
-15.72
-16.91
-17.46
-17.04
-15.56
-13.16
-10.17
-7.03
-4.10
-1.56
0.53
2.28
3.84
5.32
6.81
8.34
9.86
11.30
12.57
13.49
13.94
13.78
13.01
11.77
10.30
8.88
7.72
6.87
6.28
5.78
5.21
4.48
3.59
2.60
1.56
0.47
-0.71
-1.99
-3.31
-4.59
-5.70
-6.62
-7.40
-8.14
-8.83
-9.40
-9.60
-9.23
-8.21
-6.56
-4.49
-2.20
0.19
2.64
5.17
7.79
10.42
12.90
15.04
16.60
17.41
17.32
16.29
14.41
11.89
8.96
5.88
2.87
0.09
-2.32
-4.30
-5.87
-7.09
-8.04
-8.79
-9.38
-9.82
-10.15
-10.43
-10.77
-11.23
-11.80
-12.44
-13.09
-13.75
-14.47
-15.29
-16.21
-17.13
-17.91
-18.47
-18.75
-18.77
-18.54
-17.95
-16.85
-15.14
-12.76
-9.83
-6.63
-3.44
-0.47
2.17
4.52
6.59
8.38
9.81
10.83
11.42
11.70
11.84
12.02
12.30
12.55
12.55
12.12
11.19
9.91
8.59
7.49
6.79
6.43
6.09
5.52
4.53
3.16
1.68
0.38
-0.64
-1.43
-2.18
-3.08
-4.19
-5.47
-6.78
-8.03
-9.24
-10.40
-11.49
-12.38
-12.82
-12.57
-11.50
-9.61
-7.09
-4.17
-1.05
2.07
5.02
7.66
9.82
11.46
12.65
13.59
14.51
15.55
16.60
17.31
17.32
16.39
14.66
12.47
10.24
8.19
6.32
4.50
2.69
1.01
-0.34
-1.23
-1.79
-2.39
-3.38
-4.93
-6.86
-8.73
-10.10
-10.75
-10.69
-10.22
-9.64
-9.18
-8.94
-8.91
-9.02
-9.19
-9.27
-9.08
-8.42
-7.07
-4.98
-2.18
1.13
4.70
8.25
11.57
14.48
16.82
18.44
19.16
18.87
17.52
15.17
12.05
8.49
4.83
1.46
-1.39
-3.60
-5.23
-6.47
-7.60
-8.84
-10.27
-11.76
-13.02
-13.81
-13.98
-13.65
-13.10
-12.65
-12.47
-12.61
-12.89
-13.19
-13.51
-13.95
-14.68
-15.69
-16.79
-17.67
-18.06
-17.88
-17.29
-16.55
-15.81
-15.06
-14.07
-12.54
-10.32
-7.47
-4.24
-1.04
1.78
4.06
5.74
6.93
7.76
8.43
9.06
9.72
10.41
11.03
11.49
11.69
11.64
11.40
11.07
10.69
10.22
9.56
8.62
7.29
5.59
3.64
1.61
-0.25
-1.73
-2.71
-3.18
-3.32
-3.40
-3.70
-4.37
-5.36
-6.42
-7.17
-7.22
-6.31
-4.38
-1.59
1.70
5.06
8.09
10.61
12.62
14.28
15.73
16.90
17.50
17.14
15.55
12.81
9.37
5.86
2.85
0.58
-1.01
-2.16
-3.09
-3.92
-4.60
-5.09
-5.42
-5.66
-5.88
-6.11
-6.28
-6.34
-6.25
-6.04
-5.76
-5.49
-5.34
-5.45
-6.03
-7.17
-8.88
-10.96
-13.11
-15.05
-16.55
-17.53
-17.95
-17.74
-16.87
-15.34
-13.30
-10.98
-8.68
-6.57
-4.70
-2.97
-1.26
0.49
2.24
3.83
5.14
6.11
6.80
7.38
8.08
9.05
10.29
11.59
12.61
13.02
12.62
11.51
9.96
8.35
6.90
5.66
4.49
3.18
1.60
-0.27
-2.34
-4.44
-6.45
-8.27
-9.86
-11.28
-12.60
-13.85
-14.99
-15.74
-15.72
-14.59
-12.20
-8.76
-4.74
-0.69
2.92
5.84
8.04
9.55
10.45
10.87
11.00
11.11
11.49
12.28
13.42
14.67
15.73
16.33
16.34
15.72
14.54
12.90
10.95
8.90
6.96
5.23
3.66
2.09
0.29
-1.84
-4.27
-6.85
-9.36
-11.69
-13.74
-15.48
-16.85
-17.77
-18.10
-17.71
-16.57
-14.73
-12.39
-9.81
-7.21
-4.68
-2.18
0.35
2.88
5.20
6.95
7.86
7.85
7.17
6.24
5.46
4.97
4.65
4.33
3.90
3.49
3.27
3.37
3.65
3.83
3.57
2.75
1.45
-0.04
-1.46
-2.69
-3.74
-4.70
-5.68
-6.72
-7.82
-8.96
-10.05
-10.97
-11.59
-11.72
-11.25
-10.19
-8.57
-6.50
-4.10
-1.46
1.35
4.25
7.18
10.05
12.82
15.40
17.65
19.40
20.53
20.99
20.89
20.37
19.60
18.68
17.62
16.35
14.77
12.88
10.77
8.59
6.51
4.64
2.99
1.51
0.13
-1.22
-2.59
-4.03
-5.60
-7.34
-9.21
-11.13
-13.01
-14.74
-16.35
-17.83
-19.12
-19.98
-20.02
-18.87
-16.40
-12.82
-8.62
-4.45
-0.75
2.29
4.70
6.67
8.29
9.51
10.23
10.41
10.15
9.65
9.12
8.66
8.27
7.82
7.19
6.33
5.24
4.04
2.84
1.73
0.78
0.04
-0.49
-0.73
-0.65
-0.19
0.63
1.67
2.68
3.39
3.51
2.90
1.60
-0.21
-2.26
-4.26
-6.00
-7.25
-7.83
-7.66
-6.72
-5.17
-3.30
-1.42
0.21
1.49
2.46
3.17
3.65
3.87
3.82
3.56
3.21
2.97
2.92
3.03
3.15
3.15
3.00
2.77
2.59
2.56
2.67
2.80
2.79
2.53
1.99
1.22
0.25
-0.90
-2.26
-3.86
-5.67
-7.64
-9.64
-11.51
-13.16
-14.54
-15.65
-16.53
-17.17
-17.50
-17.39
-16.64
-15.10
-12.67
-9.43
-5.54
-1.28
3.08
7.27
11.07
14.29
16.76
18.39
19.15
19.16
18.65
17.91
17.19
16.58
16.02
15.30
14.22
12.65
10.65
8.43
6.21
4.12
2.19
0.37
-1.42
-3.19
-4.91
-6.56
-8.08
-9.47
-10.72
-11.82
-12.76
-13.58
-14.33
-15.12
-15.91
-16.54
-16.73
-16.14
-14.58
-12.08
-8.86
-5.34
-1.87
1.26
3.90
6.02
7.61
8.63
9.06
8.98
8.53
8.02
7.69
7.70
8.04
8.53
8.97
9.24
9.29
9.11
8.69
7.89
6.61
4.84
2.74
0.59
-1.32
-2.87
-4.19
-5.51
-7.11
-9.07
-11.28
-13.41
-15.11
-16.07
-16.15
-15.33
-13.71
-11.36
-8.41
-5.00
-1.37
2.17
5.29
7.70
9.28
10.08
10.31
10.23
10.01
9.69
9.20
8.41
7.32
6.02
4.68
3.46
2.42
1.54
0.78
0.04
-0.72
-1.51
-2.40
-3.44
-4.65
-5.99
-7.33
-8.56
-9.63
-10.55
-11.50
-12.64
-14.01
-15.50
-16.84
-17.68
-17.72
-16.73
-14.63
-11.53
-7.74
-3.66
0.27
3.71
6.50
8.60
10.09
11.11
11.73
12.05
12.09
11.79
11.11
10.00
8.53
6.94
5.51
4.53
4.09
3.95
3.74
3.11
1.93
0.35
-1.28
-2.70
-3.87
-4.95
-6.20
-7.70
-9.38
-11.01
-12.40
-13.46
-14.18
-14.51
-14.35
-13.53
-11.87
-9.39
-6.26
-2.79
0.66
3.79
6.42
8.48
9.96
10.91
11.37
11.42
11.10
10.43
9.43
8.15
6.72
5.37
4.30
3.60
3.24
3.00
2.65
2.04
1.11
-0.02
-1.25
-2.50
-3.80
-5.18
-6.67
-8.23
-9.79
-11.32
-12.79
-14.19
-15.43
-16.28
-16.47
-15.69
-13.80
-10.90
-7.32
-3.47
0.23
3.53
6.38
8.84
10.98
12.75
13.98
14.48
14.15
13.05
11.45
9.76
8.32
7.41
7.04
7.09
7.27
7.29
6.88
5.95
4.56
2.91
1.32
0.03
-0.81
-1.22
-1.41
-1.66
-2.25
-3.37
-5.02
-7.06
-9.18
-11.05
-12.45
-13.30
-13.58
-13.34
-12.52
-11.03
-8.82
-5.89
-2.44
1.26
4.89
8.15
10.76
12.59
13.58
13.81
13.51
12.98
12.52
12.35
12.50
12.85
13.16
13.20
12.83
12.06
10.95
9.68
8.40
7.19
6.10
5.12
4.16
3.14
1.95
0.49
-1.28
-3.34
-5.57
-7.74
-9.68
-11.35
-12.79
-14.18
-15.62
-17.08
-18.41
-19.32
-19.51
-18.74
-16.83
-13.71
-9.45
-4.22
1.67
7.73
13.45
18.33
22.06
24.61
26.14
26.98
27.39
27.41
26.91
25.65
23.52
20.64
17.40
14.27
11.60
9.42
7.51
5.54
3.33
0.95
-1.32
-3.20
-4.51
-5.30
-5.75
-6.03
-6.20
-6.26
-6.23
-6.21
-6.37
-6.85
-7.70
-8.81
-9.98
-11.05
-11.97
-12.77
-13.60
-14.53
-15.54
-16.47
-17.08
-17.07
-16.28
-14.63
-12.22
-9.33
-6.22
-3.13
-0.09
2.97
6.17
9.48
12.63
15.20
16.77
17.20
16.69
15.69
14.73
14.13
13.95
14.01
14.04
13.83
13.31
12.50
11.47
10.27
8.99
7.70
6.51
5.47
4.56
3.69
2.72
1.56
0.18
-1.39
-3.02
-4.66
-6.20
-7.55
-8.61
-9.31
-9.66
-9.87
-10.26
-11.10
-12.54
-14.39
-16.20
-17.45
-17.72
-16.92
-15.22
-12.89
-10.20
-7.23
-3.98
-0.52
3.00
6.30
9.10
11.24
12.77
13.78
14.41
14.69
14.58
14.03
13.07
11.83
10.49
9.20
8.08
7.21
6.63
6.28
6.05
5.73
5.14
4.17
2.88
1.45
0.11
-1.00
-1.89
-2.67
-3.51
-4.47
-5.50
-6.45
-7.12
-7.44
-7.43
-7.26
-7.17
-7.40
-8.06
-9.13
-10.46
-11.82
-13.01
-13.84
-14.15
-13.85
-12.83
-11.06
-8.60
-5.65
-2.47
0.65
3.52
5.97
7.95
9.40
10.27
10.52
10.20
9.47
8.60
7.92
7.61
7.64
7.78
7.63
6.95
5.72
4.17
2.72
1.69
1.18
1.05
0.95
0.56
-0.28
-1.53
-3.00
-4.41
-5.60
-6.48
-7.12
-7.63
-8.18
-8.87
-9.73
-10.73
-11.76
-12.70
-13.45
-13.92
-14.04
-13.71
-12.82
-11.27
-9.07
-6.31
-3.29
-0.32
2.31
4.47
6.18
7.53
8.67
9.61
10.28
10.59
10.49
10.07
9.51
8.99
8.59
8.21
7.68
6.89
5.89
4.94
4.31
4.14
4.28
4.34
3.92
2.78
1.01
-1.02
-2.90
-4.37
-5.44
-6.31
-7.25
-8.40
-9.75
-11.17
-12.49
-13.61
-14.43
-14.88
-14.82
-14.10
-12.62
-10.45
-7.80
-4.98
-2.28
0.11
2.12
3.79
5.10
6.04
6.60
6.84
6.90
6.94
7.00
6.95
6.62
5.88
4.80
3.65
2.76
2.35
2.38
2.57
2.54
2.05
1.07
-0.19
-1.46
-2.53
-3.37
-4.14
-5.09
-6.40
-8.12
-10.14
-12.20
-14.02
-15.43
-16.33
-16.66
-16.41
-15.53
-14.06
-12.12
-9.96
-7.90
-6.21
-5.04
-4.41
-4.19
-4.28
-4.59
-5.08
-5.77
-6.72
-7.94
-9.45
-11.18
-13.03
-14.88
-16.66
-18.32
-19.91
-21.40
-22.68
-23.51
-23.57
-22.69
-20.84
-18.26
-15.31
-12.33
-9.54
-7.02
-4.72
-2.59
-0.57
1.33
3.09
4.69
6.12
7.38
8.49
9.46
10.35
11.22
12.17
13.20
14.29
15.37
16.27
16.91
17.18
17.07
16.60
15.91
15.17
14.59
14.38
14.64
15.39
16.50
17.74
18.84
19.58
19.86
19.71
19.31
18.84
18.50
18.29
18.05
17.51
16.34
14.33
11.48
7.99
4.17
0.31
-3.42
-6.89
-9.98
-12.54
-14.31
-15.09
-14.84
-13.70
-11.96
-9.94
-7.87
-5.86
-3.96
-2.22
-0.78
0.21
0.71
0.76
0.59
0.39
0.24
0.13
-0.06
-0.39
-0.80
-1.13
-1.25
-1.14
-0.94
-0.89
-1.21
-1.97
-3.10
-4.45
-5.88
-7.29
-8.58
-9.64
-10.32
-10.42
-9.73
-8.08
-5.43
-1.85
2.36
6.83
11.11
14.77
17.51
19.13
19.62
19.14
17.93
16.29
14.52
12.79
11.14
9.46
7.63
5.55
3.24
0.84
-1.50
-3.64
-5.52
-7.10
-8.39
-9.42
-10.28
-11.07
-11.87
-12.73
-13.58
-14.37
-15.06
-15.69
-16.25
-16.62
-16.52
-15.54
-13.42
-10.19
-6.23
-2.18
1.38
4.14
6.15
7.68
9.03
10.26
11.25
11.75
11.54
10.65
9.30
7.86
6.69
5.99
5.75
5.79
5.83
5.67
5.29
4.74
4.18
3.63
3.05
2.27
1.12
-0.46
-2.36
-4.33
-6.05
-7.30
-8.05
-8.42
-8.57
-8.61
-8.46
-7.92
-6.72
-4.68
-1.84
1.55
5.03
8.15
10.52
11.97
12.52
12.39
11.86
11.20
10.54
9.88
9.12
8.15
7.02
5.90
5.01
4.50
4.31
4.16
3.70
2.68
1.11
-0.74
-2.49
-3.84
-4.74
-5.38
-6.05
-6.99
-8.21
-9.52
-10.65
-11.29
-11.28
-10.57
-9.22
-7.35
-5.15
-2.78
-0.43
1.74
3.59
5.06
6.06
6.64
6.88
6.90
6.86
6.81
6.75
6.57
6.16
5.47
4.62
3.75
2.99
2.34
1.67
0.82
-0.28
-1.50
-2.57
-3.24
-3.49
-3.53
-3.78
-4.65
-6.23
-8.36
-10.57
-12.32
-13.24
-13.13
-12.03
-10.12
-7.63
-4.75
-1.69
1.33
4.05
6.22
7.68
8.37
8.36
7.85
7.08
6.30
5.72
5.40
5.30
5.27
5.11
4.68
4.02
3.25
2.53
1.98
1.47
0.78
-0.31
-1.84
-3.56
-5.01
-5.81
-5.86
-5.43
-5.02
-5.09
-5.83
-7.01
-8.14
-8.67
-8.27
-6.85
-4.67
-2.10
0.46
2.74
4.61
6.08
7.19
7.98
8.38
8.27
7.60
6.47
5.15
3.98
3.27
3.07
3.28
3.56
3.58
3.23
2.56
1.81
1.20
0.77
0.42
-0.09
-0.95
-2.16
-3.54
-4.84
-5.84
-6.52
-6.98
-7.30
-7.49
-7.34
-6.58
-5.07
-2.93
-0.48
1.85
3.72
5.01
5.73
6.03
6.04
5.84
5.53
5.17
4.79
4.40
3.94
3.42
2.87
2.36
1.96
1.69
1.40
0.98
0.30
-0.69
-1.91
-3.30
-4.82
-6.42
-8.03
-9.51
-10.67
-11.33
-11.39
-10.88
-9.88
-8.54
-6.94
-5.24
-3.50
-1.78
-0.13
1.42
2.82
3.94
4.71
5.09
5.11
4.93
4.72
4.57
4.51
4.47
4.31
3.98
3.47
2.83
2.18
1.56
0.98
0.40
-0.29
-1.23
-2.52
-4.21
-6.17
-8.10
-9.68
-10.62
-10.83
-10.44
-9.70
-8.84
-7.96
-6.95
-5.60
-3.75
-1.40
1.21
3.76
5.94
7.57
8.66
9.28
9.51
9.35
8.80
7.91
6.76
5.52
4.34
3.34
2.54
1.91
1.42
1.05
0.78
0.53
0.19
-0.38
-1.29
-2.61
-4.26
-6.11
-7.91
-9.42
-10.47
-11.01
-11.11
-10.90
-10.42
-9.55
-8.05
-5.71
-2.54
1.14
4.78
7.82
9.88
10.91
11.12
10.83
10.32
9.74
9.16
8.61
8.11
7.67
7.24
6.72
5.98
4.94
3.63
2.17
0.78
-0.40
-1.32
-2.05
-2.82
-3.83
-5.22
-7.04
-9.15
-11.34
-13.33
-14.82
-15.57
-15.39
-14.20
-11.99
-8.95
-5.37
-1.65
1.79
4.66
6.77
8.16
9.02
9.59
10.05
10.46
10.75
10.78
10.44
9.72
8.75
7.74
6.85
6.19
5.69
5.23
4.64
3.78
2.56
1.01
-0.75
-2.59
-4.36
-5.96
-7.33
-8.54
-9.71
-10.95
-12.30
-13.70
-14.96
-15.74
-15.75
-14.76
-12.72
-9.76
-6.19
-2.35
1.46
4.99
8.12
10.74
12.78
14.14
14.79
14.78
14.24
13.46
12.70
12.15
11.84
11.66
11.41
10.89
10.01
8.81
7.47
6.22
5.20
4.43
3.75
2.93
1.80
0.31
-1.40
-3.13
-4.74
-6.19
-7.62
-9.24
-11.14
-13.22
-15.24
-16.82
-17.71
-17.75
-16.87
-15.06
-12.30
-8.66
-4.36
0.25
4.72
8.70
11.98
14.63
16.86
18.84
20.58
21.82
22.18
21.34
19.22
16.07
12.38
8.70
5.45
2.83
0.77
-0.91
-2.41
-3.80
-5.00
-5.92
-6.45
-6.61
-6.52
-6.26
-5.79
-4.92
-3.37
-0.96
2.14
5.44
8.17
9.68
9.68
8.31
6.01
3.20
0.09
-3.40
-7.38
-11.83
-16.45
-20.66
-23.84
-25.55
-25.62
-24.19
-21.60
-18.25
-14.52
-10.67
-6.81
-3.00
0.80
4.55
8.12
11.34
14.04
16.14
17.66
18.61
19.02
18.89
18.15
16.85
15.06
12.90
10.56
8.19
5.92
3.90
2.24
0.99
0.13
-0.43
-0.74
-0.78
-0.46
0.29
1.38
2.53
3.40
3.76
3.59
3.07
2.36
1.42
0.06
-2.01
-4.94
-8.58
-12.54
-16.39
-19.78
-22.64
-25.03
-26.96
-28.33
-28.80
-28.04
-25.81
-22.18
-17.50
-12.34
-7.26
-2.65
1.37
4.87
8.03
10.92
13.50
15.60
17.05
17.86
18.09
17.91
17.48
16.88
16.14
15.34
14.55
13.87
13.37
13.02
12.77
12.49
12.04
11.32
10.27
8.87
7.19
5.35
3.46
1.66
0.01
-1.46
-2.74
-3.86
-4.81
-5.63
-6.38
-7.13
-8.00
-9.05
-10.32
-11.75
-13.28
-14.80
-16.19
-17.40
-18.42
-19.30
-20.10
-20.75
-21.07
-20.71
-19.37
-16.92
-13.51
-9.48
-5.24
-1.08
2.88
6.60
10.00
12.89
14.96
16.00
15.97
15.14
13.96
12.83
12.01
11.58
11.45
11.47
11.50
11.46
11.27
10.91
10.33
9.59
8.72
7.80
6.86
5.89
4.79
3.53
2.12
0.63
-0.79
-2.08
-3.25
-4.36
-5.52
-6.78
-8.10
-9.43
-10.66
-11.73
-12.67
-13.50
-14.23
-14.91
-15.54
-16.17
-16.82
-17.50
-18.09
-18.34
-17.93
-16.65
-14.40
-11.31
-7.64
-3.71
0.22
3.90
7.15
9.80
11.73
12.94
13.55
13.76
13.81
13.79
13.70
13.46
13.04
12.47
11.92
11.45
11.05
10.61
9.98
9.06
7.88
6.50
5.04
3.55
2.05
0.54
-0.90
-2.17
-3.17
-3.86
-4.34
-4.71
-5.15
-5.77
-6.59
-7.63
-8.88
-10.30
-11.87
-13.53
-15.08
-16.31
-16.94
-16.68
-15.39
-13.06
-9.84
-6.04
-2.00
1.96
5.60
8.80
11.52
13.71
15.35
16.32
16.54
16.01
14.87
13.40
11.88
10.51
9.38
8.44
7.64
6.96
6.46
6.13
5.96
5.82
5.54
5.00
4.15
3.08
1.88
0.62
-0.67
-1.97
-3.27
-4.51
-5.67
-6.78
-7.94
-9.25
-10.83
-12.66
-14.63
-16.57
-18.20
-19.26
-19.52
-18.81
-17.08
-14.45
-11.13
-7.48
-3.84
-0.43
2.66
5.37
7.65
9.43
10.61
11.17
11.18
10.88
10.49
10.18
10.00
9.87
9.68
9.37
8.89
8.18
7.25
6.13
4.96
3.97
3.38
3.26
3.45
3.49
2.90
1.36
-1.05
-3.87
-6.48
-8.46
-9.78
-10.73
-11.74
-13.01
-14.45
-15.68
-16.26
-15.99
-14.88
-13.12
-10.91
-8.31
-5.29
-1.85
1.79
5.30
8.25
10.39
11.72
12.44
12.82
13.04
13.10
12.87
12.22
11.16
9.84
8.43
7.09
5.95
5.05
4.44
4.11
4.00
3.91
3.58
2.78
1.45
-0.31
-2.29
-4.28
-6.16
-7.91
-9.51
-10.93
-12.08
-12.90
-13.44
-13.91
-14.47
-15.10
-15.54
-15.34
-14.08
-11.54
-7.91
-3.71
0.46
4.09
6.91
8.89
10.11
10.66
10.58
9.92
8.84
7.59
6.46
5.66
5.28
5.22
5.33
5.48
5.56
5.44
5.01
4.17
2.93
1.42
-0.14
-1.50
-2.56
-3.38
-4.16
-5.05
-6.14
-7.40
-8.80
-10.34
-12.02
-13.80
-15.42
-16.47
-16.51
-15.26
-12.73
-9.30
-5.51
-1.88
1.24
3.75
5.72
7.25
8.44
9.29
9.80
9.95
9.81
9.49
9.09
8.67
8.23
7.75
7.21
6.62
5.99
5.36
4.73
4.06
3.30
2.43
1.45
0.40
-0.68
-1.78
-2.94
-4.21
-5.63
-7.22
-8.91
-10.56
-11.94
-12.76
-12.73
-11.68
-9.60
-6.73
-3.42
-0.04
3.11
5.92
8.39
10.55
12.37
13.66
14.23
14.00
13.03
11.63
10.17
8.91
7.92
7.08
6.17
5.14
4.10
3.27
2.80
2.61
2.39
1.77
0.54
-1.29
-3.44
-5.62
-7.59
-9.34
-10.94
-12.49
-13.96
-15.24
-16.19
-16.65
-16.54
-15.76
-14.25
-12.00
-9.04
-5.50
-1.58
2.45
6.28
9.59
12.13
13.77
14.50
14.46
13.83
12.81
11.59
10.28
8.99
7.87
6.99
6.39
5.97
5.54
4.93
4.09
3.03
1.89
0.74
-0.39
-1.54
-2.74
-4.00
-5.29
-6.58
-7.90
-9.30
-10.81
-12.40
-13.85
-14.89
-15.22
-14.58
-12.88
-10.20
-6.80
-3.04
0.75
4.32
7.54
10.31
12.50
13.94
14.45
14.00
12.78
11.22
9.75
8.64
7.93
7.34
6.62
5.60
4.35
3.06
1.97
1.17
0.65
0.29
-0.08
-0.62
-1.46
-2.63
-4.08
-5.69
-7.33
-8.92
-10.44
-11.87
-13.13
-14.02
-14.29
-13.66
-12.05
-9.52
-6.34
-2.87
0.53
3.58
6.10
8.01
9.36
10.26
10.90
11.41
11.78
11.93
11.69
10.98
9.87
8.54
7.23
6.08
5.10
4.22
3.38
2.52
1.68
0.87
0.07
-0.80
-1.83
-3.06
-4.43
-5.82
-7.17
-8.46
-9.74
-11.08
-12.41
-13.59
-14.38
-14.53
-13.96
-12.63
-10.55
-7.78
-4.41
-0.66
3.07
6.34
8.76
10.17
10.73
10.74
10.54
10.32
10.09
9.72
9.15
8.37
7.49
6.57
5.63
4.63
3.48
2.14
0.66
-0.85
-2.25
-3.37
-4.13
-4.56
-4.75
-4.90
-5.21
-5.83
-6.78
-7.97
-9.24
-10.46
-11.51
-12.28
-12.66
-12.46
-11.43
-9.43
-6.46
-2.76
1.22
4.93
7.88
9.82
10.81
11.10
10.99
10.69
10.24
9.58
8.72
7.74
6.85
6.22
5.86
5.60
5.17
4.31
2.99
1.36
-0.25
-1.53
-2.39
-2.92
-3.37
-4.01
-4.98
-6.28
-7.79
-9.40
-10.99
-12.44
-13.59
-14.16
-13.87
-12.46
-9.88
-6.33
-2.20
1.99
5.84
9.09
11.66
13.54
14.77
15.31
15.13
14.19
12.57
10.49
8.30
6.34
4.92
4.11
3.76
3.62
3.41
2.89
2.04
0.92
-0.32
-1.52
-2.61
-3.56
-4.43
-5.36
-6.48
-7.92
-9.69
-11.69
-13.67
-15.32
-16.30
-16.36
-15.39
-13.41
-10.61
-7.22
-3.46
0.46
4.33
7.94
11.00
13.24
14.41
14.48
13.63
12.23
10.72
9.41
8.45
7.78
7.28
6.78
6.18
5.38
4.35
3.09
1.70
0.30
-0.98
-2.09
-3.08
-4.04
-5.05
-6.16
-7.34
-8.63
-10.08
-11.68
-13.35
-14.85
-15.82
-15.95
-15.02
-13.01
-10.04
-6.35
-2.22
1.99
5.94
9.28
11.72
13.18
13.69
13.44
12.69
11.71
10.69
9.74
8.90
8.09
7.25
6.29
5.21
4.06
2.92
1.82
0.78
-0.23
-1.22
-2.15
-2.99
-3.75
-4.52
-5.49
-6.81
-8.51
-10.45
-12.34
-13.82
-14.67
-14.79
-14.23
-13.10
-11.44
-9.24
-6.47
-3.16
0.44
3.95
6.90
8.91
9.84
9.81
9.12
8.19
7.41
6.98
6.98
7.36
7.94
8.59
9.19
9.63
9.82
9.62
8.83
7.35
5.20
2.61
0.05
-2.07
-3.47
-4.25
-4.81
-5.66
-7.16
-9.35
-11.94
-14.38
-16.16
-16.86
-16.27
-14.36
-11.23
-7.12
-2.41
2.45
6.93
10.55
13.05
14.38
14.67
14.17
13.08
11.56
9.71
7.66
5.56
3.62
2.03
0.90
0.20
-0.20
-0.43
-0.60
-0.80
-1.12
-1.70
-2.67
-4.10
-5.87
-7.73
-9.33
-10.48
-11.16
-11.59
-12.08
-12.84
-13.87
-14.87
-15.36
-14.87
-13.10
-10.08
-6.14
-1.83
2.32
5.84
8.55
10.42
11.56
12.13
12.22
11.89
11.14
10.02
8.57
6.93
5.26
3.73
2.50
1.62
1.05
0.68
0.38
0.01
-0.48
-1.15
-2.03
-3.10
-4.41
-5.92
-7.57
-9.31
-11.01
-12.56
-13.82
-14.63
-14.79
-14.10
-12.42
-9.74
-6.20
-2.03
2.44
6.87
10.97
14.52
17.27
19.10
19.87
19.67
18.70
17.28
15.78
14.43
13.27
12.20
11.03
9.63
8.00
6.28
4.65
3.29
2.26
1.49
0.80
-0.01
-1.15
-2.73
-4.77
-7.15
-9.68
-12.19
-14.49
-16.39
-17.67
-18.06
-17.31
-15.34
-12.24
-8.36
-4.21
-0.25
3.18
5.98
8.24
10.11
11.66
12.85
13.54
13.61
13.10
12.10
10.88
9.65
8.57
7.66
6.85
6.00
5.06
4.02
2.94
1.90
0.90
-0.15
-1.35
-2.80
-4.49
-6.33
-8.17
-9.90
-11.52
-13.13
-14.80
-16.49
-17.93
-18.71
-18.41
-16.74
-13.74
-9.72
-5.23
-0.81
3.06
6.19
8.61
10.53
12.17
13.67
14.91
15.70
15.86
15.36
14.43
13.36
12.41
11.65
10.91
9.96
8.69
7.18
5.66
4.39
3.48
2.83
2.18
1.23
-0.19
-2.10
-4.30
-6.52
-8.52
-10.19
-11.56
-12.77
-13.99
-15.23
-16.37
-17.11
-17.15
-16.26
-14.36
-11.54
-7.99
-4.00
0.12
4.01
7.38
10.00
11.80
12.80
13.16
13.09
12.79
12.41
12.05
11.75
11.52
11.33
11.14
10.87
10.46
9.87
9.04
7.94
6.58
5.00
3.34
1.74
0.28
-1.05
-2.30
-3.63
-5.14
-6.87
-8.78
-10.77
-12.73
-14.59
-16.28
-17.73
-18.77
-19.17
-18.67
-17.09
-14.36
-10.66
-6.35
-1.93
2.06
5.26
7.55
9.00
9.78
10.05
9.93
9.50
8.94
8.53
8.51
8.98
9.77
10.49
10.76
10.37
9.39
8.10
6.83
5.73
4.74
3.72
2.53
1.13
-0.36
-1.77
-2.93
-3.73
-4.18
-4.41
-4.67
-5.25
-6.38
-8.10
-10.20
-12.29
-13.89
-14.68
-14.51
-13.44
-11.65
-9.28
-6.46
-3.30
0.06
3.38
6.32
8.53
9.68
9.58
8.36
6.36
4.09
2.11
0.72
-0.00
-0.21
-0.20
-0.17
-0.19
-0.24
-0.18
-0.01
0.22
0.33
0.15
-0.48
-1.55
-2.95
-4.45
-5.78
-6.74
-7.29
-7.58
-7.87
-8.43
-9.38
-10.69
-12.13
-13.34
-13.99
-13.77
-12.52
-10.27
-7.21
-3.66
0.05
3.64
6.89
9.71
12.07
13.93
15.26
16.00
16.11
15.58
14.47
12.93
11.19
9.54
8.22
7.39
7.03
6.94
6.86
6.53
5.83
4.80
3.55
2.17
0.70
-0.88
-2.55
-4.27
-5.93
-7.48
-8.94
-10.44
-12.06
-13.80
-15.48
-16.77
-17.37
-17.08
-15.85
-13.75
-10.97
-7.67
-4.11
-0.57
2.71
5.49
7.68
9.36
10.66
11.73
12.67
13.49
14.12
14.47
14.42
13.90
12.89
11.46
9.79
8.12
6.68
5.58
4.76
3.95
2.92
1.48
-0.35
-2.34
-4.25
-5.84
-7.07
-8.03
-8.92
-9.93
-11.22
-12.82
-14.57
-16.19
-17.31
-17.61
-16.92
-15.27
-12.87
-9.98
-6.83
-3.54
-0.22
3.02
5.96
8.37
10.10
11.15
11.68
11.93
12.05
12.05
11.83
11.26
10.38
9.35
8.44
7.86
7.59
7.43
7.07
6.22
4.83
3.03
1.12
-0.58
-1.92
-2.95
-3.84
-4.84
-6.14
-7.76
-9.64
-11.63
-13.56
-15.33
-16.82
-17.87
-18.32
-18.00
-16.77
-14.66
-11.81
-8.48
-4.99
-1.58
1.55
4.28
6.52
8.26
9.56
10.58
11.49
12.29
12.89
13.02
12.50
11.40
10.07
8.94
8.40
8.43
8.72
8.81
8.37
7.40
6.22
5.15
4.42
3.87
3.13
1.84
-0.15
-2.68
-5.36
-7.80
-9.79
-11.37
-12.79
-14.22
-15.61
-16.68
-17.04
-16.43
-14.85
-12.58
-9.98
-7.32
-4.66
-1.93
0.88
3.62
5.97
7.54
8.14
7.85
7.01
6.09
5.42
5.07
4.91
4.69
4.31
3.86
3.58
3.70
4.17
4.66
4.76
4.09
2.64
0.76
-1.05
-2.35
-3.01
-3.24
-3.45
-3.98
-5.03
-6.55
-8.36
-10.27
-12.07
-13.50
-14.28
-14.11
-12.82
-10.49
-7.44
-4.16
-1.09
1.51
3.57
5.16
6.35
7.18
7.71
8.02
8.26
8.52
8.82
8.96
8.75
8.05
6.91
5.57
4.32
3.38
2.76
2.37
2.01
1.56
0.91
0.01
-1.16
-2.59
-4.23
-5.96
-7.65
-9.17
-10.43
-11.43
-12.25
-13.00
-13.73
-14.40
-14.84
-14.78
-13.92
-12.10
-9.34
-5.89
-2.17
1.32
4.21
6.28
7.54
8.16
8.34
8.29
8.16
8.00
7.85
7.74
7.69
7.70
7.71
7.58
7.16
6.33
5.09
3.58
1.98
0.51
-0.69
-1.66
-2.49
-3.35
-4.38
-5.67
-7.23
-9.07
-11.16
-13.38
-15.53
-17.31
-18.38
-18.49
-17.52
-15.54
-12.78
-9.54
-6.15
-2.93
-0.05
2.42
4.53
6.38
8.00
9.34
10.33
10.86
10.94
10.67
10.21
9.70
9.16
8.51
7.70
6.69
5.60
4.55
3.66
2.96
2.43
2.00
1.53
0.90
-0.06
-1.46
-3.26
-5.33
-7.42
-9.30
-10.86
-12.13
-13.17
-14.02
-14.57
-14.61
-13.94
-12.44
-10.18
-7.34
-4.09
-0.63
2.90
6.33
9.46
12.05
13.94
15.02
15.39
15.20
14.67
13.96
13.20
12.42
11.64
10.85
10.05
9.25
8.47
7.76
7.13
6.53
5.83
4.83
3.34
1.32
-1.12
-3.70
-6.13
-8.19
-9.86
-11.31
-12.68
-14.08
-15.40
-16.46
-17.04
-16.94
-16.09
-14.46
-12.07
-8.98
-5.30
-1.17
3.18
7.46
11.32
14.37
16.37
17.28
17.28
16.77
16.20
15.88
15.81
15.73
15.26
14.19
12.57
10.73
9.10
7.95
7.30
6.94
6.58
6.03
5.18
3.98
2.43
0.56
-1.52
-3.56
-5.24
-6.34
-6.93
-7.41
-8.33
-10.14
-12.88
-16.16
-19.26
-21.45
-22.25
-21.51
-19.46
-16.43
-12.78
-8.76
-4.57
-0.37
3.62
7.13
9.94
11.94
13.24
14.03
14.52
14.84
14.93
14.71
14.18
13.49
12.88
12.56
12.53
12.59
12.49
12.03
11.23
10.17
8.96
7.60
6.06
4.36
2.62
1.09
-0.11
-0.99
-1.82
-2.90
-4.43
-6.37
-8.47
-10.45
-12.19
-13.71
-15.11
-16.49
-17.83
-18.99
-19.80
-20.04
-19.54
-18.18
-15.93
-12.88
-9.27
-5.39
-1.54
2.02
5.22
8.00
10.37
12.32
13.78
14.74
15.27
15.50
15.57
15.60
15.58
15.45
15.11
14.49
13.60
12.53
11.37
10.20
9.02
7.76
6.44
5.10
3.91
3.01
2.42
2.01
1.59
0.90
-0.17
-1.61
-3.34
-5.20
-7.06
-8.81
-10.40
-11.82
-13.10
-14.27
-15.35
-16.31
-17.00
-17.24
-16.84
-15.63
-13.60
-10.83
-7.51
-3.88
-0.25
3.10
5.94
8.10
9.59
10.48
10.90
10.97
10.80
10.48
10.04
9.52
8.90
8.17
7.28
6.28
5.24
4.34
3.67
3.21
2.83
2.30
1.45
0.28
-1.05
-2.26
-3.15
-3.65
-3.92
-4.18
-4.65
-5.39
-6.34
-7.41
-8.51
-9.60
-10.65
-11.54
-12.14
-12.38
-12.36
-12.30
-12.46
-12.89
-13.33
-13.24
-12.07
-9.57
-6.00
-1.95
1.90
5.04
7.40
9.12
10.43
11.43
11.99
11.99
11.45
10.59
9.71
9.12
8.86
8.83
8.85
8.78
8.56
8.19
7.64
6.91
5.97
4.93
3.90
2.96
2.09
1.16
-0.01
-1.47
-3.10
-4.74
-6.28
-7.72
-9.15
-10.61
-12.01
-13.18
-13.87
-13.97
-13.53
-12.66
-11.45
-9.91
-7.96
-5.55
-2.72
0.34
3.36
6.05
8.23
9.77
10.66
10.98
10.83
10.40
9.90
9.50
9.32
9.36
9.45
9.36
8.88
7.91
6.53
4.92
3.28
1.74
0.31
-0.96
-1.98
-2.63
-2.84
-2.75
-2.71
-3.21
-4.65
-7.12
-10.31
-13.63
-16.44
-18.23
-18.82
-18.35
-17.11
-15.44
-13.49
-11.27
-8.66
-5.62
-2.24
1.18
4.18
6.42
7.74
8.25
8.36
8.46
8.85
9.50
10.13
10.38
9.98
8.92
7.50
6.15
5.22
4.86
4.88
4.90
4.56
3.61
2.10
0.24
-1.63
-3.23
-4.38
-5.14
-5.68
-6.30
-7.24
-8.61
-10.36
-12.32
-14.19
-15.65
-16.40
-16.15
-14.77
-12.30
-8.96
-5.19
-1.46
1.83
4.46
6.37
7.68
8.53
9.06
9.35
9.45
9.39
9.13
8.64
7.90
6.97
5.95
5.00
4.22
3.63
3.20
2.84
2.52
2.26
2.08
1.91
1.60
0.97
-0.13
-1.68
-3.51
-5.37
-7.09
-8.64
-10.09
-11.50
-12.78
-13.61
-13.60
-12.49
-10.26
-7.25
-4.01
-1.03
1.38
3.19
4.58
5.76
6.83
7.74
8.34
8.55
8.36
7.87
7.24
6.59
6.01
5.55
5.23
5.08
5.08
5.11
5.00
4.57
3.74
2.54
1.19
-0.11
-1.21
-2.07
-2.80
-3.54
-4.39
-5.41
-6.65
-8.08
-9.72
-11.47
-13.17
-14.49
-15.04
-14.56
-13.04
-10.69
-7.95
-5.21
-2.67
-0.32
1.95
4.21
6.34
8.07
9.13
9.43
9.11
8.50
7.91
7.53
7.37
7.30
7.20
7.00
6.66
6.12
5.32
4.18
2.75
1.17
-0.33
-1.55
-2.46
-3.14
-3.84
-4.81
-6.18
-7.90
-9.75
-11.37
-12.49
-12.94
-12.74
-12.03
-10.96
-9.54
-7.73
-5.46
-2.79
-0.01
2.53
4.53
5.93
6.92
7.75
8.54
9.16
9.38
9.00
8.05
6.83
5.70
4.96
4.64
4.59
4.62
4.53
4.27
3.84
3.23
2.41
1.37
0.14
-1.22
-2.64
-4.13
-5.74
-7.50
-9.36
-11.16
-12.66
-13.61
-13.77
-13.04
-11.39
-8.91
-5.77
-2.22
1.46
4.98
8.10
10.66
12.51
13.54
13.74
13.15
12.02
10.68
9.47
8.60
8.03
7.54
6.81
5.67
4.14
2.49
1.02
-0.09
-0.89
-1.62
-2.53
-3.71
-5.04
-6.27
-7.25
-8.01
-8.77
-9.77
-11.03
-12.27
-12.94
-12.56
-10.94
-8.33
-5.22
-2.15
0.58
2.97
5.21
7.36
9.34
10.86
11.64
11.56
10.82
9.75
8.66
7.75
7.00
6.34
5.72
5.17
4.75
4.40
3.97
3.24
2.06
0.47
-1.29
-2.87
-4.02
-4.70
-5.08
-5.48
-6.25
-7.62
-9.60
-11.97
-14.26
-15.86
-16.18
-14.88
-11.99
-7.95
-3.46
0.79
4.34
7.11
9.25
10.96
12.35
13.34
13.82
13.81
13.49
13.10
12.82
12.67
12.45
11.90
10.85
9.26
7.30
5.22
3.27
1.68
0.56
-0.12
-0.48
-0.81
-1.45
-2.69
-4.59
-6.98
-9.49
-11.77
-13.64
-15.11
-16.22
-16.89
-16.84
-15.70
-13.31
-9.84
-5.80
-1.82
1.62
4.36
6.49
8.18
9.52
10.47
10.92
10.85
10.34
9.56
8.71
7.94
7.31
6.81
6.36
5.90
5.39
4.89
4.55
4.58
5.01
5.67
6.21
6.16
5.28
3.55
1.24
-1.28
-3.74
-6.06
-8.27
-10.43
-12.45
-14.07
-14.95
-14.89
-13.86
-12.13
-9.97
-7.60
-5.10
-2.44
0.41
3.35
6.12
8.42
9.99
10.79
10.97
10.76
10.44
10.13
9.89
9.68
9.44
9.10
8.63
7.99
7.21
6.31
5.30
4.14
2.81
1.29
-0.32
-1.88
-3.21
-4.22
-4.98
-5.75
-6.82
-8.38
-10.40
-12.59
-14.47
-15.56
-15.46
-14.08
-11.56
-8.16
-4.24
-0.06
4.09
7.99
11.34
13.90
15.49
16.13
16.03
15.51
14.82
14.07
13.22
12.14
10.82
9.34
7.91
6.68
5.71
4.89
4.07
3.13
2.01
0.76
-0.51
-1.74
-2.93
-4.13
-5.48
-7.05
-8.87
-10.80
-12.67
-14.23
-15.32
-15.85
-15.79
-15.17
-13.98
-12.18
-9.76
-6.79
-3.51
-0.23
2.75
5.26
7.33
9.13
10.82
12.39
13.69
14.42
14.43
13.80
12.79
11.74
10.89
10.24
9.69
9.08
8.40
7.71
7.10
6.56
5.97
5.18
4.09
2.73
1.17
-0.49
-2.22
-4.05
-6.00
-8.02
-10.01
-11.86
-13.52
-15.01
-16.30
-17.26
-17.63
-17.09
-15.41
-12.69
-9.30
-5.77
-2.51
0.35
2.95
5.57
8.33
11.09
13.49
15.12
15.76
15.49
14.63
13.52
12.43
11.48
10.68
10.05
9.55
9.11
8.55
7.66
6.23
4.26
2.00
-0.22
-2.11
-3.58
-4.76
-5.88
-7.05
-8.23
-9.26
-10.07
-10.74
-11.49
-12.54
-13.85
-15.21
-16.28
-16.86
-16.91
-16.61
-16.05
-15.18
-13.75
-11.55
-8.60
-5.19
-1.77
1.31
3.90
6.15
8.20
10.11
11.70
12.65
12.74
12.00
10.73
9.45
8.63
8.46
8.81
9.29
9.45
9.08
8.20
7.10
6.09
5.33
4.69
3.90
2.70
1.06
-0.75
-2.38
-3.57
-4.30
-4.81
-5.44
-6.44
-7.84
-9.51
-11.23
-12.80
-14.08
-15.00
-15.49
-15.49
-14.91
-13.76
-12.06
-9.91
-7.46
-4.83
-2.11
0.65
3.35
5.78
7.69
8.82
9.13
8.80
8.21
7.70
7.43
7.32
7.15
6.73
6.04
5.27
4.62
4.25
4.13
4.18
4.18
4.05
3.66
2.99
2.00
0.68
-0.87
-2.50
-3.98
-5.17
-6.01
-6.57
-7.00
-7.39
-7.82
-8.22
-8.48
-8.43
-7.98
-7.14
-5.98
-4.63
-3.24
-1.87
-0.55
0.64
1.70
2.63
3.46
4.25
5.00
5.62
5.97
5.94
5.47
4.66
3.70
2.75
1.95
1.27
0.64
-0.02
-0.73
-1.44
-2.06
-2.55
-2.89
-3.13
-3.39
-3.79
-4.46
-5.44
-6.72
-8.15
-9.56
-10.82
-11.86
-12.75
-13.57
-14.38
-15.15
-15.74
-15.92
-15.50
-14.39
-12.63
-10.33
-7.63
-4.69
-1.68
1.21
3.72
5.64
6.84
7.42
7.59
7.63
7.64
7.59
7.31
6.67
5.78
4.94
4.51
4.76
5.62
6.75
7.71
8.09
7.79
6.92
5.75
4.52
3.35
2.15
0.79
-0.88
-2.87
-5.03
-7.18
-9.13
-10.81
-12.25
-13.53
-14.65
-15.54
-15.98
-15.68
-14.42
-12.18
-9.14
-5.78
-2.59
0.04
1.94
3.23
4.15
4.86
5.36
5.56
5.43
5.14
5.00
5.30
6.05
6.98
7.65
7.74
7.18
6.20
5.10
4.06
3.06
1.91
0.41
-1.48
-3.64
-5.88
-7.94
-9.64
-10.89
-11.72
-12.29
-12.81
-13.49
-14.40
-15.50
-16.61
-17.49
-17.94
-17.78
-16.94
-15.35
-13.06
-10.22
-7.06
-3.95
-1.22
0.90
2.29
3.01
3.23
3.15
2.95
2.75
2.60
2.54
2.69
3.16
4.13
5.65
7.57
9.54
11.15
12.10
12.46
12.55
12.78
13.38
14.16
14.71
14.57
13.52
11.70
9.49
7.26
5.20
3.28
1.37
-0.52
-2.13
-3.10
-3.06
-1.92
0.10
2.53
4.89
6.81
8.12
8.92
9.39
9.79
10.22
10.72
11.20
11.50
11.48
11.02
10.11
8.80
7.26
5.68
4.27
3.11
2.20
1.46
0.77
0.07
-0.69
-1.60
-2.75
-4.20
-5.97
-7.89
-9.71
-11.17
-12.15
-12.78
-13.36
-14.24
-15.69
-17.73
-20.17
-22.64
-24.69
-25.81
-25.63
-24.00
-21.04
-17.13
-12.79
-8.47
-4.42
-0.70
2.77
6.02
9.03
11.73
14.06
16.08
17.87
19.50
21.00
22.27
23.24
23.91
24.33
24.62
24.89
25.09
25.12
24.82
24.08
22.91
21.35
19.43
17.10
14.27
10.87
6.99
2.92
-0.98
-4.38
-7.23
-9.68
-12.01
-14.42
-16.90
-19.26
-21.26
-22.74
-23.68
-24.16
-24.23
-23.86
-23.03
-21.75
-20.16
-18.43
-16.69
-14.84
-12.59
-9.54
-5.45
-0.37
5.33
11.11
16.53
21.32
25.51
29.15
32.21
34.48
35.67
35.61
34.40
32.40
29.96
27.30
24.30
20.62
16.02
10.58
4.77
-0.77
-5.50
-9.34
-12.58
-15.76
-19.29
-23.14
-26.84
-29.63
-30.83
-30.13
-27.69
-24.00
-19.62
-14.99
-10.25
-5.42
-0.52
4.25
8.43
11.52
13.23
13.62
13.18
12.54
12.19
12.24
12.40
12.13
11.05
9.05
6.36
3.37
0.38
-2.44
-5.03
-7.38
-9.36
-10.87
-11.88
-12.52
-12.99
-13.46
-13.93
-14.28
-14.32
-13.98
-13.36
-12.65
-11.96
-11.24
-10.30
-8.97
-7.17
-4.98
-2.58
-0.09
2.46
5.08
7.73
10.36
12.83
14.97
16.62
17.58
17.66
16.73
14.85
12.29
9.54
7.06
5.18
3.95
3.22
2.73
2.24
1.64
0.89
0.06
-0.77
-1.51
-2.13
-2.69
-3.31
-4.19
-5.44
-7.04
-8.84
-10.61
-12.17
-13.44
-14.41
-15.01
-15.11
-14.49
-13.04
-10.80
-8.07
-5.20
-2.57
-0.35
1.50
3.11
4.61
6.05
7.35
8.43
9.12
9.37
9.22
8.75
8.10
7.41
6.76
6.15
5.52
4.81
4.03
3.27
2.60
2.02
1.42
0.62
-0.57
-2.22
-4.26
-6.47
-8.63
-10.64
-12.47
-14.17
-15.69
-16.78
-17.09
-16.21
-13.90
-10.33
-5.99
-1.55
2.36
5.39
7.57
9.15
10.47
11.68
12.72
13.41
13.60
13.29
12.66
11.97
11.46
11.19
11.06
10.88
10.46
9.65
8.47
6.97
5.26
3.45
1.63
-0.16
-1.86
-3.47
-4.97
-6.35
-7.65
-8.91
-10.19
-11.51
-12.84
-14.05
-14.95
-15.29
-14.88
-13.62
-11.49
-8.64
-5.28
-1.71
1.80
5.03
7.91
10.45
12.68
14.53
15.77
16.16
15.58
14.18
12.42
10.87
9.88
9.48
9.33
8.95
8.06
6.73
5.33
4.28
3.72
3.44
2.96
1.83
-0.11
-2.60
-5.21
-7.51
-9.37
-10.97
-12.59
-14.39
-16.23
-17.65
-18.12
-17.27
-15.07
-11.81
-8.00
-4.11
-0.49
2.75
5.61
8.13
10.32
12.12
13.40
14.06
14.13
13.72
13.08
12.44
11.98
11.71
11.51
11.16
10.46
9.35
7.84
6.09
4.27
2.53
0.99
-0.37
-1.61
-2.82
-4.08
-5.41
-6.77
-8.14
-9.59
-11.20
-13.04
-15.00
-16.74
-17.83
-17.88
-16.74
-14.51
-11.51
-8.12
-4.64
-1.30
1.78
4.53
6.90
8.85
10.32
11.24
11.52
11.21
10.48
9.62
9.00
8.78
8.86
8.91
8.62
7.87
6.88
6.03
5.60
5.58
5.59
5.12
3.85
1.81
-0.64
-2.98
-4.82
-6.08
-6.93
-7.69
-8.62
-9.86
-11.39
-13.05
-14.63
-15.88
-16.57
-16.56
-15.69
-13.86
-11.07
-7.42
-3.18
1.13
4.93
7.67
9.11
9.37
8.86
8.05
7.29
6.70
6.25
5.95
5.86
6.09
6.61
7.18
7.44
7.07
6.00
4.43
2.73
1.20
0.04
-0.78
-1.34
-1.74
-2.09
-2.53
-3.21
-4.22
-5.64
-7.39
-9.31
-11.24
-13.03
-14.49
-15.40
-15.44
-14.38
-12.14
-8.94
-5.25
-1.59
1.61
4.15
6.07
7.55
8.77
9.80
10.54
10.81
10.49
9.58
8.31
7.00
5.92
5.17
4.64
4.12
3.47
2.72
2.02
1.52
1.15
0.70
-0.06
-1.24
-2.68
-4.11
-5.31
-6.29
-7.25
-8.43
-9.96
-11.72
-13.42
-14.74
-15.39
-15.26
-14.37
-12.72
-10.43
-7.54
-4.16
-0.41
3.50
7.29
10.58
12.97
14.16
14.06
12.93
11.28
9.74
8.75
8.41
8.47
8.49
8.15
7.42
6.52
5.72
5.14
4.64
3.95
2.86
1.33
-0.44
-2.14
-3.59
-4.74
-5.73
-6.74
-7.90
-9.21
-10.57
-11.80
-12.70
-13.10
-12.84
-11.80
-9.98
-7.43
-4.26
-0.66
3.13
6.75
9.89
12.26
13.70
14.18
13.86
12.89
11.53
10.02
8.60
7.46
6.74
6.40
6.25
6.06
5.57
4.71
3.51
2.10
0.65
-0.73
-1.96
-2.98
-3.78
-4.43
-5.08
-5.98
-7.34
-9.18
-11.28
-13.19
-14.48
-14.85
-14.28
-12.92
-11.00
-8.67
-5.99
-3.00
0.17
3.28
6.06
8.34
10.02
11.09
11.58
11.50
10.93
10.11
9.26
8.62
8.21
7.85
7.30
6.40
5.24
4.12
3.34
3.05
3.08
3.05
2.59
1.49
-0.23
-2.40
-4.72
-6.93
-8.85
-10.38
-11.53
-12.38
-13.03
-13.58
-13.96
-14.03
-13.57
-12.38
-10.38
-7.67
-4.50
-1.22
1.82
4.38
6.34
7.76
8.81
9.64
10.37
11.01
11.44
11.54
11.23
10.49
9.43
8.22
7.04
6.01
5.19
4.48
3.77
2.93
1.90
0.76
-0.41
-1.49
-2.42
-3.25
-4.07
-4.97
-6.05
-7.33
-8.84
-10.58
-12.49
-14.39
-15.96
-16.81
-16.59
-15.12
-12.42
-8.76
-4.56
-0.33
3.42
6.28
8.09
8.93
9.11
9.05
9.08
9.36
9.78
10.12
10.19
9.87
9.15
8.15
6.94
5.59
4.17
2.75
1.49
0.58
0.14
0.19
0.54
0.82
0.59
-0.43
-2.33
-4.85
-7.55
-9.99
-11.89
-13.28
-14.34
-15.23
-15.95
-16.26
-15.78
-14.26
-11.61
-8.10
-4.26
-0.66
2.32
4.59
6.32
7.77
9.06
10.13
10.77
10.82
10.29
9.44
8.64
8.16
8.04
8.04
7.82
7.13
5.94
4.49
3.03
1.76
0.73
-0.19
-1.11
-2.05
-2.96
-3.74
-4.33
-4.85
-5.54
-6.57
-8.01
-9.69
-11.25
-12.34
-12.68
-12.18
-10.88
-8.88
-6.35
-3.47
-0.45
2.45
4.99
7.02
8.47
9.46
10.11
10.54
10.74
10.63
10.10
9.15
7.91
6.60
5.44
4.49
3.80
3.34
3.15
3.33
3.86
4.53
4.92
4.56
3.15
0.80
-2.01
-4.66
-6.66
-7.94
-8.79
-9.66
-10.84
-12.28
-13.59
-14.30
-14.03
-12.75
-10.70
-8.20
-5.50
-2.65
0.40
3.63
6.84
9.67
11.76
12.90
13.21
12.97
12.47
11.85
11.05
9.93
8.49
6.90
5.43
4.37
3.78
3.56
3.47
3.27
2.81
1.97
0.74
-0.85
-2.69
-4.65
-6.49
-8.05
-9.33
-10.44
-11.57
-12.84
-14.19
-15.38
-16.12
-16.12
-15.24
-13.40
-10.62
-7.02
-2.81
1.67
5.94
9.51
12.04
13.40
13.70
13.23
12.32
11.23
10.17
9.20
8.31
7.43
6.49
5.47
4.39
3.34
2.43
1.74
1.30
1.07
0.92
0.67
0.10
-0.94
-2.51
-4.46
-6.62
-8.70
-10.49
-11.93
-13.04
-13.89
-14.52
-14.81
-14.59
-13.66
-11.92
-9.46
-6.54
-3.54
-0.79
1.58
3.62
5.52
7.42
9.23
10.63
11.26
10.94
9.78
8.23
6.81
5.90
5.61
5.74
6.00
6.11
5.93
5.43
4.67
3.74
2.65
1.39
-0.10
-1.88
-3.93
-6.11
-8.16
-9.77
-10.74
-11.10
-11.21
-11.53
-12.39
-13.76
-15.21
-16.06
-15.76
-14.06
-11.08
-7.30
-3.23
0.64
4.03
6.81
8.97
10.51
11.41
11.65
11.23
10.21
8.73
7.08
5.53
4.28
3.35
2.66
2.03
1.45
0.98
0.72
0.70
0.74
0.55
-0.10
-1.26
-2.72
-4.14
-5.31
-6.25
-7.19
-8.39
-9.95
-11.68
-13.19
-14.05
-13.98
-12.93
-11.06
-8.60
-5.80
-2.84
0.14
2.98
5.52
7.65
9.30
10.51
11.32
11.76
11.81
11.45
10.81
10.16
9.78
9.84
10.22
10.59
10.57
9.98
8.86
7.46
6.02
4.63
3.18
1.52
-0.43
-2.59
-4.79
-6.86
-8.71
-10.34
-11.76
-12.92
-13.76
-14.22
-14.26
-13.86
-12.95
-11.38
-9.03
-5.77
-1.70
2.88
7.40
11.26
13.92
15.17
15.17
14.34
13.13
11.88
10.73
9.71
8.87
8.32
8.13
8.23
8.29
7.97
6.94
5.14
2.81
0.29
-2.05
-4.00
-5.47
-6.47
-7.02
-7.23
-7.27
-7.44
-8.00
-9.11
-10.66
-12.34
-13.73
-14.38
-13.95
-12.27
-9.42
-5.71
-1.63
2.28
5.61
8.17
9.97
11.22
12.10
12.74
13.12
13.21
12.96
12.37
11.44
10.18
8.63
6.89
5.18
3.72
2.73
2.27
2.20
2.28
2.28
1.95
1.13
-0.24
-2.16
-4.47
-6.88
-9.05
-10.65
-11.56
-11.92
-12.11
-12.45
-13.14
-14.00
-14.63
-14.63
-13.71
-11.84
-9.17
-5.86
-2.04
2.10
6.22
9.80
12.27
13.35
13.11
12.02
10.67
9.45
8.45
7.58
6.74
5.95
5.41
5.20
5.25
5.33
5.06
4.30
3.08
1.64
0.22
-0.97
-1.87
-2.45
-2.74
-2.86
-3.01
-3.44
-4.41
-6.05
-8.30
-10.86
-13.32
-15.19
-16.12
-15.93
-14.75
-12.85
-10.54
-8.06
-5.46
-2.78
-0.00
2.83
5.59
8.24
10.69
12.84
14.49
15.35
15.14
13.83
11.67
9.18
6.95
5.38
4.57
4.40
4.58
4.85
5.01
4.92
4.46
3.57
2.29
0.82
-0.64
-1.90
-2.95
-3.89
-4.91
-6.13
-7.60
-9.28
-11.00
-12.59
-13.79
-14.31
-13.87
-12.36
-9.89
-6.78
-3.43
-0.25
2.54
4.88
6.77
8.24
9.27
9.87
10.10
10.16
10.24
10.42
10.64
10.64
10.26
9.44
8.38
7.35
6.54
5.94
5.35
4.55
3.41
1.99
0.44
-1.09
-2.56
-3.95
-5.19
-6.16
-6.74
-7.00
-7.22
-7.78
-8.96
-10.72
-12.69
-14.34
-15.17
-14.95
-13.66
-11.40
-8.31
-4.51
-0.18
4.29
8.44
11.78
13.99
15.03
15.10
14.57
13.74
12.77
11.65
10.31
8.66
6.83
5.07
3.65
2.73
2.24
1.91
1.48
0.81
-0.00
-0.73
-1.16
-1.31
-1.40
-1.74
-2.58
-3.96
-5.78
-7.88
-10.13
-12.47
-14.77
-16.77
-18.07
-18.30
-17.29
-15.17
-12.32
-9.17
-6.04
-3.05
-0.21
2.43
4.80
6.84
8.58
10.12
11.57
12.90
13.95
14.42
14.12
13.05
11.44
9.64
7.94
6.47
5.17
3.93
2.64
1.28
-0.07
-1.31
-2.39
-3.35
-4.28
-5.26
-6.33
-7.39
-8.26
-8.83
-9.20
-9.62
-10.41
-11.71
-13.27
-14.56
-14.94
-14.00
-11.74
-8.53
-4.86
-1.17
2.27
5.33
7.93
9.94
11.18
11.58
11.18
10.25
9.14
8.23
7.75
7.68
7.79
7.69
7.08
5.92
4.42
2.98
1.95
1.36
0.98
0.40
-0.64
-2.04
-3.50
-4.69
-5.50
-6.15
-6.98
-8.21
-9.83
-11.52
-12.85
-13.52
-13.31
-12.22
-10.40
-7.98
-5.18
-2.23
0.65
3.23
5.34
6.96
8.07
8.75
9.13
9.31
9.39
9.37
9.23
8.87
8.29
7.50
6.55
5.50
4.36
3.12
1.84
0.68
-0.05
-0.14
0.42
1.27
1.76
1.24
-0.61
-3.60
-7.07
-10.23
-12.55
-13.87
-14.38
-14.37
-13.97
-13.05
-11.41
-8.97
-5.84
-2.31
1.33
4.79
7.87
10.29
11.78
12.21
11.65
10.44
9.05
7.92
7.17
6.69
6.27
5.73
5.12
4.59
4.22
4.00
3.77
3.35
2.64
1.65
0.43
-0.96
-2.55
-4.39
-6.43
-8.58
-10.58
-12.20
-13.23
-13.59
-13.26
-12.31
-10.78
-8.70
-6.16
-3.26
-0.20
2.77
5.39
7.49
9.02
10.05
10.84
11.72
12.92
14.46
16.02
17.01
16.91
15.45
12.87
9.82
7.05
5.13
4.15
3.83
3.64
3.15
2.18
0.76
-0.93
-2.74
-4.66
-6.71
-8.90
-11.12
-13.14
-14.67
-15.50
-15.56
-14.98
-14.00
-12.79
-11.44
-9.85
-7.82
-5.23
-2.12
1.30
4.65
7.61
9.94
11.57
12.51
12.84
12.60
11.89
10.83
9.56
8.27
7.08
6.10
5.35
4.76
4.24
3.62
2.81
1.76
0.58
-0.52
-1.31
-1.67
-1.75
-1.91
-2.58
-4.04
-6.24
-8.85
-11.40
-13.46
-14.81
-15.43
-15.42
-14.83
-13.67
-11.89
-9.49
-6.59
-3.42
-0.32
2.48
4.88
6.93
8.68
10.12
11.09
11.41
11.04
10.12
8.96
7.95
7.31
7.00
6.86
6.64
6.28
5.78
5.24
4.69
4.09
3.34
2.42
1.28
-0.04
-1.60
-3.43
-5.49
-7.65
-9.71
-11.48
-12.88
-13.92
-14.64
-15.02
-14.97
-14.38
-13.27
-11.82
-10.29
-8.88
-7.59
-6.28
-4.74
-2.89
-0.79
1.40
3.48
5.31
6.81
7.92
8.58
8.77
8.57
8.21
7.90
7.77
7.79
7.80
7.59
7.07
6.31
5.55
5.00
4.78
4.82
4.88
4.68
4.00
2.76
1.04
-0.94
-2.99
-4.97
-6.83
-8.57
-10.21
-11.77
-13.15
-14.17
-14.65
-14.41
-13.34
-11.52
-9.18
-6.63
-4.17
-1.97
-0.08
1.56
3.03
4.36
5.50
6.42
7.13
7.72
8.32
9.00
9.73
10.44
10.97
11.22
11.10
10.55
9.53
8.02
6.16
4.13
2.24
0.77
-0.19
-0.71
-1.12
-1.67
-2.49
-3.57
-4.80
-6.15
-7.65
-9.37
-11.23
-12.95
-14.17
-14.66
-14.42
-13.70
-12.83
-11.94
-10.92
-9.44
-7.20
-4.15
-0.59
2.97
5.93
7.89
8.77
8.76
8.29
7.79
7.61
7.91
8.56
9.35
9.96
10.21
10.04
9.57
8.95
8.28
7.55
6.69
5.63
4.35
2.94
1.52
0.19
-1.14
-2.60
-4.33
-6.36
-8.50
-10.54
-12.27
-13.63
-14.63
-15.35
-15.78
-15.83
-15.33
-14.15
-12.34
-10.07
-7.59
-5.08
-2.56
0.02
2.76
5.57
8.18
10.16
11.23
11.27
10.50
9.34
8.21
7.38
6.97
6.94
7.25
7.77
8.31
8.62
8.47
7.70
6.36
4.71
3.02
1.51
0.27
-0.79
-1.75
-2.78
-3.96
-5.37
-7.07
-9.05
-11.19
-13.28
-15.00
-16.09
-16.41
-16.04
-15.15
-13.95
-12.53
-10.91
-8.99
-6.77
-4.38
-2.10
-0.13
1.42
2.66
3.83
5.03
6.27
7.32
7.97
8.12
7.85
7.33
6.72
6.10
5.44
4.77
4.17
3.81
3.78
4.02
4.31
4.31
3.76
2.62
1.09
-0.48
-1.85
-2.99
-4.14
-5.59
-7.48
-9.61
-11.53
-12.75
-13.02
-12.50
-11.50
-10.40
-9.22
-7.75
-5.66
-2.84
0.45
3.56
5.81
6.84
6.73
5.93
5.02
4.49
4.53
5.06
5.87
6.65
7.19
7.31
6.96
6.24
5.31
4.35
3.54
3.01
2.79
2.88
3.11
3.24
2.93
1.93
0.20
-2.07
-4.47
-6.67
-8.46
-9.85
-10.90
-11.66
-12.06
-11.96
-11.28
-10.02
-8.30
-6.16
-3.60
-0.64
2.55
5.62
8.19
10.01
11.08
11.60
11.80
11.75
11.40
10.61
9.35
7.80
6.23
4.99
4.27
3.99
3.88
3.62
2.90
1.63
-0.04
-1.79
-3.25
-4.20
-4.67
-4.89
-5.19
-5.74
-6.57
-7.64
-8.90
-10.35
-11.99
-13.60
-14.74
-14.84
-13.48
-10.71
-7.05
-3.31
-0.16
2.09
3.69
5.15
6.90
9.10
11.41
13.24
14.01
13.53
12.04
10.16
8.55
7.59
7.29
7.33
7.29
6.91
6.09
4.98
3.77
2.52
1.22
-0.19
-1.72
-3.25
-4.59
-5.60
-6.26
-6.74
-7.39
-8.51
-10.19
-12.14
-13.69
-14.16
-13.19
-10.91
-7.99
-5.20
-2.97
-1.24
0.38
2.26
4.38
6.32
7.59
7.98
7.76
7.53
7.73
8.42
9.18
9.49
9.10
8.18
7.21
6.56
6.32
6.18
5.80
4.92
3.56
1.90
0.12
-1.75
-3.72
-5.77
-7.72
-9.27
-10.20
-10.53
-10.56
-10.65
-11.05
-11.73
-12.35
-12.56
-12.08
-10.79
-8.76
-6.10
-2.96
0.43
3.78
6.70
8.82
9.89
10.03
9.54
8.85
8.31
7.98
7.79
7.54
7.14
6.59
5.98
5.41
4.93
4.54
4.17
3.80
3.46
3.20
3.01
2.79
2.34
1.50
0.16
-1.65
-3.79
-6.10
-8.37
-10.41
-12.06
-13.13
-13.45
-12.94
-11.65
-9.76
-7.52
-5.11
-2.60
0.03
2.81
5.59
8.09
9.98
11.02
11.22
10.81
10.15
9.51
9.01
8.64
8.36
8.24
8.33
8.53
8.53
7.90
6.35
3.98
1.31
-0.95
-2.27
-2.62
-2.48
-2.58
-3.39
-4.95
-6.84
-8.53
-9.66
-10.26
-10.61
-10.94
-11.24
-11.24
-10.53
-8.82
-6.12
-2.71
0.97
4.57
7.86
10.73
13.02
14.53
14.99
14.28
12.57
10.36
8.23
6.65
5.74
5.29
4.92
4.35
3.51
2.55
1.67
0.94
0.24
-0.63
-1.81
-3.28
-4.80
-6.13
-7.12
-7.85
-8.58
-9.53
-10.80
-12.28
-13.67
-14.58
-14.75
-14.03
-12.38
-9.80
-6.25
-1.79
3.37
8.73
13.64
17.39
19.55
20.06
19.25
17.73
16.11
14.74
13.71
12.90
12.16
11.50
11.05
11.00
11.42
12.21
13.13
13.85
14.07
13.53
12.07
9.56
5.93
1.23
-4.30
-10.24
-16.07
-21.30
-25.58
-28.68
-30.44
-30.70
-29.32
-26.33
-21.99
-16.83
-11.58
-6.87
-3.04
-0.04
2.41
4.73
7.10
9.37
11.21
12.21
12.25
11.59
10.79
10.38
10.62
11.33
12.02
12.18
11.62
10.54
9.33
8.31
7.46
6.45
4.81
2.32
-0.98
-4.80
-8.82
-12.83
-16.75
-20.46
-23.72
-26.15
-27.41
-27.32
-25.92
-23.46
-20.24
-16.50
-12.43
-8.21
-4.02
-0.11
3.31
6.08
8.15
9.58
10.50
11.05
11.34
11.43
11.29
10.89
10.19
9.24
8.19
7.23
6.53
6.13
5.95
5.76
5.37
4.65
3.64
2.46
1.26
0.10
-1.10
-2.51
-4.31
-6.47
-8.84
-11.11
-12.93
-14.10
-14.60
-14.56
-14.08
-13.05
-11.29
-8.56
-4.90
-0.60
3.73
7.52
10.40
12.33
13.45
13.89
13.69
12.84
11.43
9.68
7.98
6.72
6.06
5.87
5.86
5.74
5.43
5.00
4.55
4.11
3.60
2.92
2.02
0.97
-0.12
-1.28
-2.68
-4.49
-6.86
-9.66
-12.49
-14.76
-15.91
-15.64
-13.96
-11.19
-7.75
-4.09
-0.51
2.79
5.73
8.22
10.09
11.15
11.29
10.62
9.54
8.58
8.13
8.21
8.48
8.49
7.98
7.11
6.25
5.78
5.72
5.70
5.23
3.98
1.96
-0.49
-2.96
-5.16
-7.00
-8.50
-9.63
-10.38
-10.75
-10.95
-11.25
-11.90
-12.85
-13.81
-14.29
-13.82
-12.09
-9.11
-5.16
-0.75
3.54
7.17
9.81
11.46
12.33
12.70
12.87
12.88
12.67
12.08
11.03
9.66
8.25
7.07
6.31
6.00
5.94
5.88
5.58
4.78
3.38
1.42
-0.93
-3.34
-5.46
-7.03
-7.94
-8.38
-8.73
-9.46
-10.91
-13.02
-15.36
-17.28
-18.12
-17.56
-15.63
-12.64
-8.95
-4.82
-0.37
4.21
8.55
12.13
14.45
15.29
14.85
13.72
12.52
11.71
11.44
11.68
12.32
13.17
13.98
14.33
13.76
11.97
9.03
5.50
2.17
-0.34
-1.85
-2.63
-3.30
-4.31
-5.77
-7.52
-9.25
-10.78
-12.09
-13.25
-14.30
-15.18
-15.74
-15.88
-15.45
-14.34
-12.45
-9.71
-6.23
-2.35
1.48
4.82
7.40
9.32
10.82
12.12
13.22
13.91
13.90
13.10
11.77
10.41
9.54
9.46
9.99
10.68
10.96
10.51
9.33
7.70
5.99
4.35
2.73
0.91
-1.23
-3.60
-5.90
-7.82
-9.22
-10.15
-10.81
-11.42
-12.16
-13.11
-14.37
-15.93
-17.58
-18.88
-19.24
-18.11
-15.26
-10.91
-5.62
-0.15
4.92
9.20
12.55
14.92
16.27
16.69
16.40
15.76
15.14
14.73
14.53
14.31
13.86
13.08
12.03
10.81
9.50
8.02
6.33
4.45
2.56
0.91
-0.29
-1.06
-1.61
-2.19
-3.04
-4.16
-5.46
-6.83
-8.23
-9.73
-11.40
-13.23
-15.14
-16.99
-18.60
-19.66
-19.85
-18.84
-16.53
-13.18
-9.35
-5.73
-2.76
-0.46
1.47
3.41
5.51
7.53
9.03
9.66
9.37
8.51
7.61
7.14
7.27
7.89
8.63
9.10
8.96
8.13
6.73
5.08
3.50
2.19
1.19
0.43
-0.12
-0.42
-0.46
-0.27
-0.08
-0.22
-0.95
-2.37
-4.37
-6.60
-8.72
-10.49
-11.84
-12.89
-13.78
-14.51
-14.82
-14.19
-12.04
-8.11
-2.75
3.07
8.08
11.24
12.27
11.71
10.56
9.72
9.58
9.90
10.13
9.81
8.84
7.53
6.31
5.42
4.83
4.29
3.60
2.78
2.02
1.56
1.52
1.80
2.12
2.12
1.54
0.33
-1.37
-3.30
-5.17
-6.84
-8.27
-9.57
-10.90
-12.40
-14.09
-15.82
-17.25
-17.94
-17.52
-15.81
-12.91
-9.17
-5.11
-1.18
2.35
5.41
8.11
10.49
12.54
14.10
15.01
15.16
14.57
13.36
11.70
9.75
7.71
5.75
4.17
3.18
2.92
3.25
3.86
4.31
4.24
3.47
2.07
0.27
-1.67
-3.54
-5.28
-6.96
-8.79
-10.90
-13.24
-15.58
-17.42
-18.27
-17.79
-16.02
-13.35
-10.40
-7.71
-5.46
-3.41
-1.04
2.02
5.74
9.57
12.71
14.52
14.87
14.18
13.11
12.26
11.88
11.83
11.79
11.45
10.69
9.60
8.31
6.86
5.28
3.58
1.84
0.20
-1.29
-2.60
-3.76
-4.83
-5.77
-6.56
-7.26
-8.02
-9.06
-10.49
-12.18
-13.81
-15.03
-15.55
-15.36
-14.63
-13.55
-12.18
-10.40
-8.01
-4.87
-1.09
2.98
6.86
10.10
12.37
13.59
13.96
13.79
13.41
13.02
12.62
11.98
10.96
9.55
7.96
6.55
5.54
4.93
4.48
3.85
2.84
1.40
-0.28
-2.00
-3.53
-4.77
-5.69
-6.40
-7.08
-8.01
-9.38
-11.27
-13.50
-15.69
-17.38
-18.23
-18.04
-16.81
-14.55
-11.34
-7.32
-2.80
1.69
5.60
8.58
10.53
11.65
12.29
12.62
12.68
12.40
11.79
11.02
10.41
10.15
10.17
10.15
9.70
8.68
7.24
5.78
4.62
3.81
3.07
2.03
0.50
-1.38
-3.25
-4.75
-5.75
-6.40
-7.05
-7.98
-9.29
-10.91
-12.61
-14.08
-15.12
-15.57
-15.38
-14.52
-12.97
-10.70
-7.63
-3.85
0.35
4.44
7.75
9.83
10.54
10.15
9.14
7.92
6.68
5.52
4.56
4.07
4.22
4.94
5.84
6.32
6.04
5.04
3.83
2.99
2.79
3.00
3.13
2.67
1.46
-0.27
-2.12
-3.72
-4.93
-5.87
-6.76
-7.83
-9.20
-10.85
-12.51
-13.80
-14.26
-13.55
-11.60
-8.64
-5.12
-1.49
1.96
5.15
8.03
10.44
12.09
12.71
12.27
11.12
9.83
8.92
8.53
8.42
8.08
7.11
5.47
3.52
1.75
0.54
-0.09
-0.38
-0.66
-1.15
-1.90
-2.83
-3.88
-5.02
-6.24
-7.59
-9.08
-10.69
-12.38
-14.07
-15.65
-16.86
-17.37
-16.81
-14.93
-11.75
-7.65
-3.25
0.76
3.88
5.96
7.18
7.89
8.42
8.91
9.32
9.55
9.51
9.18
8.58
7.72
6.63
5.42
4.28
3.51
3.34
3.83
4.85
5.97
6.72
6.65
5.55
3.46
0.71
-2.27
-5.13
-7.62
-9.75
-11.63
-13.42
-15.14
-16.63
-17.58
-17.61
-16.52
-14.30
-11.23
-7.66
-3.93
-0.29
3.17
6.32
9.06
11.15
12.33
12.43
11.50
9.81
7.75
5.81
4.34
3.53
3.39
3.71
4.13
4.28
3.84
2.76
1.32
-0.12
-1.19
-1.82
-2.23
-2.84
-4.02
-5.93
-8.40
-10.97
-13.14
-14.51
-14.90
-14.32
-12.93
-11.02
-8.78
-6.40
-3.94
-1.43
1.13
3.61
5.83
7.65
9.06
10.22
11.21
12.05
12.55
12.42
11.49
9.83
7.90
6.21
5.22
4.95
5.04
4.95
4.20
2.60
0.31
-2.23
-4.59
-6.35
-7.36
-7.63
-7.52
-7.56
-8.28
-10.02
-12.64
-15.52
-17.71
-18.45
-17.47
-15.11
-12.08
-8.99
-6.06
-3.05
0.45
4.60
9.07
13.21
16.37
18.24
19.09
19.40
19.66
19.97
20.13
19.73
18.47
16.40
13.91
11.51
9.61
8.38
7.57
6.74
5.46
3.53
1.11
-1.41
-3.59
-5.20
-6.46
-7.86
-9.90
-12.77
-16.13
-19.27
-21.49
-22.38
-22.01
-20.75
-18.93
-16.66
-13.76
-9.97
-5.25
0.02
5.19
9.53
12.62
14.40
15.12
15.15
14.71
13.95
12.82
11.34
9.66
8.05
6.90
6.38
6.45
6.70
6.59
5.63
3.66
0.96
-1.89
-4.16
-5.42
-5.63
-5.22
-4.73
-4.57
-4.84
-5.35
-5.81
-6.15
-6.50
-7.07
-7.94
-8.81
-9.07
-8.16
-5.86
-2.47
1.35
4.86
7.63
9.48
10.43
10.52
9.71
8.13
6.12
4.31
3.39
3.74
5.17
6.99
8.36
8.66
7.82
6.21
4.40
2.80
1.54
0.54
-0.33
-1.10
-1.69
-2.00
-2.11
-2.21
-2.54
-3.30
-4.49
-6.00
-7.63
-9.27
-10.84
-12.26
-13.40
-14.04
-13.85
-12.58
-10.12
-6.69
-2.65
1.52
5.45
8.89
11.70
13.79
15.03
15.30
14.52
12.78
10.37
7.70
5.27
3.39
2.29
1.92
2.07
2.43
2.67
2.58
2.08
1.33
0.57
-0.00
-0.41
-0.90
-1.76
-3.19
-5.10
-7.19
-9.10
-10.63
-11.79
-12.72
-13.57
-14.28
-14.64
-14.34
-13.11
-10.85
-7.69
-3.94
-0.14
3.20
5.68
7.13
7.74
7.85
7.84
7.91
8.07
8.26
8.41
8.61
8.93
9.36
9.65
9.52
8.74
7.39
5.83
4.45
3.49
2.82
2.14
1.20
-0.03
-1.33
-2.48
-3.48
-4.54
-6.00
-8.05
-10.47
-12.85
-14.60
-15.35
-15.02
-13.77
-11.86
-9.49
-6.77
-3.75
-0.50
2.83
6.03
8.80
10.90
12.12
12.40
11.77
10.47
8.87
7.32
6.06
5.06
4.18
3.31
2.51
2.03
2.16
2.93
4.09
5.10
5.40
4.70
3.00
0.62
-2.06
-4.80
-7.56
-10.39
-13.20
-15.75
-17.66
-18.70
-18.73
-17.81
-16.05
-13.51
-10.22
-6.18
-1.56
3.34
7.99
11.81
14.39
15.53
15.41
14.40
12.99
11.60
10.48
9.63
8.90
8.02
6.85
5.55
4.49
4.08
4.48
5.45
6.37
6.56
5.64
3.68
1.24
-1.10
-2.99
-4.53
-6.12
-8.09
-10.55
-13.24
-15.78
-17.82
-19.16
-19.71
-19.30
-17.75
-14.93
-11.05
-6.60
-2.28
1.41
4.30
6.63
8.72
10.77
12.66
14.09
14.79
14.64
13.75
12.28
10.35
8.06
5.52
3.08
1.25
0.48
0.95
2.42
4.26
5.76
6.33
5.73
4.06
1.65
-1.11
-3.92
-6.58
-8.98
-10.97
-12.45
-13.39
-13.93
-14.34
-14.86
-15.50
-16.01
-15.82
-14.42
-11.51
-7.29
-2.45
2.17
5.82
8.18
9.39
9.91
10.32
11.00
12.01
13.11
13.85
13.78
12.74
10.88
8.62
6.46
4.83
3.96
3.80
4.14
4.65
4.91
4.64
3.61
1.81
-0.60
-3.32
-6.03
-8.37
-10.11
-11.14
-11.47
-11.32
-11.03
-11.06
-11.73
-13.11
-14.79
-16.08
-16.13
-14.32
-10.51
-5.12
0.91
6.53
10.80
13.22
13.79
13.01
11.54
9.96
8.68
7.90
7.70
8.09
8.90
9.85
10.41
10.12
8.69
6.31
3.57
1.20
-0.24
-0.60
-0.09
0.82
1.69
2.13
1.91
0.93
-0.73
-2.88
-5.21
-7.51
-9.73
-11.93
-14.12
-16.13
-17.54
-17.89
-16.91
-14.75
-11.87
-8.84
-5.96
-3.20
-0.33
2.72
5.76
8.28
9.84
10.29
9.85
8.99
8.15
7.60
7.37
7.36
7.38
7.26
6.90
6.24
5.36
4.42
3.63
3.10
2.77
2.39
1.68
0.53
-0.93
-2.41
-3.61
-4.45
-5.07
-5.78
-6.86
-8.43
-10.31
-12.18
-13.57
-14.08
-13.53
-11.95
-9.57
-6.65
-3.44
-0.08
3.20
6.11
8.25
9.33
9.40
8.90
8.52
8.78
9.74
10.90
11.46
10.80
8.80
5.95
3.05
0.81
-0.48
-0.99
-1.10
-1.12
-1.17
-1.20
-1.20
-1.41
-2.12
-3.54
-5.59
-7.74
-9.43
-10.22
-10.11
-9.47
-8.75
-8.19
-7.66
-6.75
-4.99
-2.22
1.34
5.07
8.26
10.34
11.05
10.59
9.38
7.95
6.67
5.69
4.88
4.05
3.08
2.11
1.44
1.32
1.83
2.68
3.45
3.71
3.27
2.26
0.92
-0.40
-1.57
-2.62
-3.72
-4.99
-6.46
-7.92
-9.12
-9.93
-10.39
-10.77
-11.36
-12.33
-13.55
-14.54
-14.62
-13.22
-10.14
-5.67
-0.55
4.39
8.51
11.53
13.49
14.53
14.74
14.15
12.76
10.76
8.52
6.54
5.25
4.75
4.84
5.04
4.88
4.08
2.62
0.81
-0.92
-2.08
-2.37
-1.89
-1.06
-0.59
-1.17
-3.08
-6.00
-9.15
-11.61
-12.80
-12.74
-11.96
-11.11
-10.55
-10.14
-9.40
-7.88
-5.36
-2.04
1.63
5.13
8.02
10.08
11.17
11.35
10.80
9.76
8.47
7.12
5.82
4.65
3.72
3.19
3.10
3.36
3.66
3.68
3.30
2.58
1.79
1.07
0.36
-0.59
-2.05
-4.11
-6.51
-8.74
-10.27
-10.82
-10.46
-9.57
-8.60
-7.91
-7.54
-7.27
-6.79
-5.77
-4.11
-1.93
0.48
2.84
5.02
7.08
9.11
11.12
12.93
14.17
14.47
13.58
11.62
8.97
6.27
4.16
2.95
2.65
2.90
3.17
2.96
2.01
0.36
-1.61
-3.38
-4.56
-5.00
-4.93
-4.77
-4.87
-5.44
-6.51
-7.97
-9.62
-11.24
-12.49
-12.95
-12.25
-10.25
-7.15
-3.49
0.07
3.09
5.44
7.21
8.50
9.19
9.11
8.25
6.86
5.42
4.35
3.86
3.81
3.97
4.17
4.44
4.89
5.42
5.70
5.29
3.86
1.46
-1.49
-4.40
-6.84
-8.66
-9.99
-11.00
-11.75
-12.17
-12.11
-11.61
-10.83
-10.02
-9.32
-8.58
-7.43
-5.49
-2.59
1.01
4.74
7.91
10.08
11.19
11.59
11.77
12.08
12.62
13.22
13.56
13.35
12.45
10.88
8.80
6.48
4.20
2.19
0.55
-0.71
-1.62
-2.22
-2.60
-2.87
-3.22
-3.86
-4.98
-6.67
-8.89
-11.40
-13.91
-16.01
-17.32
-17.51
-16.45
-14.22
-11.13
-7.64
-4.20
-1.05
1.75
4.31
6.78
9.26
11.70
13.96
15.85
17.12
17.54
16.97
15.42
13.11
10.40
7.78
5.59
4.07
3.16
2.65
2.28
1.78
1.00
-0.07
-1.40
-2.96
-4.71
-6.61
-8.59
-10.44
-11.90
-12.79
-13.13
-13.13
-13.21
-13.69
-14.61
-15.59
-15.88
-14.80
-11.95
-7.51
-2.11
3.32
7.99
11.41
13.52
14.53
14.72
14.35
13.60
12.54
11.24
9.80
8.42
7.36
6.85
6.97
7.50
7.94
7.66
6.38
4.26
1.91
0.03
-0.98
-1.30
-1.56
-2.36
-3.92
-5.88
-7.60
-8.61
-9.02
-9.46
-10.61
-12.80
-15.56
-17.82
-18.43
-16.75
-12.97
-8.01
-2.98
1.24
4.37
6.61
8.34
9.75
10.80
11.27
10.99
9.93
8.32
6.51
4.91
3.86
3.59
4.13
5.25
6.45
7.21
7.15
6.28
4.96
3.68
2.77
2.28
1.93
1.38
0.41
-1.00
-2.70
-4.57
-6.59
-8.78
-11.17
-13.61
-15.75
-17.17
-17.52
-16.64
-14.66
-11.90
-8.75
-5.53
-2.48
0.33
2.86
5.10
6.93
8.14
8.49
7.85
6.35
4.39
2.64
1.67
1.77
2.70
3.83
4.48
4.28
3.36
2.31
1.80
2.22
3.40
4.72
5.34
4.65
2.51
-0.69
-4.16
-7.04
-8.76
-9.22
-8.87
-8.44
-8.51
-9.21
-10.11
-10.47
-9.70
-7.66
-4.88
-2.07
0.20
1.91
3.42
5.22
7.43
9.63
11.15
11.59
11.06
10.17
9.61
9.72
10.25
10.58
10.11
8.69
6.70
4.69
3.03
1.73
0.41
-1.25
-3.28
-5.35
-6.94
-7.76
-7.88
-7.73
-7.87
-8.70
-10.38
-12.71
-15.27
-17.53
-18.91
-18.91
-17.26
-14.05
-9.76
-5.00
-0.28
4.21
8.48
12.48
15.96
18.46
19.56
19.20
17.77
16.01
14.54
13.64
13.12
12.55
11.56
10.13
8.50
6.95
5.62
4.48
3.42
2.37
1.35
0.42
-0.44
-1.42
-2.76
-4.55
-6.71
-8.89
-10.78
-12.29
-13.57
-14.92
-16.43
-17.85
-18.68
-18.34
-16.47
-13.05
-8.44
-3.13
2.32
7.38
11.60
14.57
16.05
16.09
15.06
13.52
12.04
10.98
10.43
10.20
9.91
9.28
8.20
6.78
5.31
4.01
2.90
1.84
0.59
-0.97
-2.71
-4.45
-5.98
-7.22
-8.32
-9.47
-10.80
-12.15
-13.22
-13.71
-13.51
-12.81
-12.05
-11.67
-11.81
-12.20
-12.19
-11.07
-8.42
-4.37
0.45
5.17
9.11
11.96
13.87
15.15
16.05
16.52
16.30
15.12
12.97
10.21
7.51
5.66
5.18
6.11
7.90
9.61
10.26
9.26
6.63
2.97
-0.82
-3.92
-5.89
-6.73
-6.81
-6.60
-6.48
-6.73
-7.42
-8.62
-10.34
-12.59
-15.23
-17.87
-19.90
-20.68
-19.81
-17.33
-13.75
-9.80
-6.10
-2.90
-0.01
2.93
6.15
9.49
12.44
14.40
15.01
14.37
12.93
11.31
9.93
8.93
8.12
7.27
6.24
5.17
4.37
4.04
4.17
4.48
4.60
4.29
3.56
2.69
1.91
1.27
0.48
-0.91
-3.22
-6.38
-9.84
-12.90
-15.04
-16.13
-16.54
-16.68
-16.70
-16.35
-15.12
-12.58
-8.76
-4.17
0.43
4.34
7.22
9.06
10.13
10.68
10.84
10.65
10.10
9.24
8.27
7.46
7.08
7.29
7.94
8.60
8.72
7.93
6.33
4.38
2.70
1.64
1.03
0.39
-0.76
-2.45
-4.26
-5.75
-6.73
-7.49
-8.60
-10.46
-12.91
-15.26
-16.60
-16.33
-14.37
-11.16
-7.45
-3.95
-1.01
1.32
3.34
5.40
7.62
9.79
11.40
11.94
11.25
9.69
8.00
6.94
6.88
7.68
8.79
9.60
9.69
9.02
7.77
6.17
4.39
2.59
0.81
-0.91
-2.56
-4.27
-6.23
-8.59
-11.35
-14.29
-16.95
-18.79
-19.37
-18.57
-16.72
-14.36
-11.96
-9.62
-7.12
-4.09
-0.45
3.53
7.29
10.31
12.43
13.90
15.10
16.25
17.13
17.27
16.30
14.33
11.92
9.90
8.78
8.53
8.66
8.57
7.87
6.63
5.23
3.98
2.85
1.50
-0.50
-3.37
-6.83
-10.27
-13.06
-14.85
-15.75
-16.20
-16.68
-17.43
-18.37
-19.13
-19.19
-18.04
-15.46
-11.52
-6.66
-1.50
3.39
7.68
11.34
14.51
17.27
19.52
21.02
21.50
20.87
19.28
17.13
14.79
12.62
10.73
9.15
7.80
6.68
5.75
4.86
3.92
2.82
1.50
0.03
-1.46
-2.92
-4.36
-5.88
-7.57
-9.45
-11.44
-13.37
-15.10
-16.60
-17.88
-18.93
-19.56
-19.50
-18.39
-16.01
-12.42
-7.95
-3.14
1.46
5.41
8.58
11.06
13.03
14.65
15.85
16.47
16.24
15.04
13.06
10.77
8.75
7.52
7.35
7.98
8.90
9.44
9.18
7.99
6.13
4.04
2.16
0.67
-0.56
-1.78
-3.30
-5.24
-7.42
-9.52
-11.30
-12.74
-14.01
-15.37
-16.81
-18.00
-18.43
-17.60
-15.40
-12.13
-8.38
-4.75
-1.57
1.23
3.82
6.31
8.65
10.49
11.51
11.58
10.92
9.98
9.28
9.11
9.41
9.79
9.65
8.71
7.14
5.53
4.57
4.55
5.10
5.31
4.39
2.10
-0.94
-3.58
-4.92
-4.77
-3.86
-3.28
-3.90
-5.70
-8.10
-10.16
-11.42
-11.96
-12.25
-12.65
-13.09
-12.99
-11.68
-8.85
-4.78
-0.26
3.80
6.88
8.93
10.29
11.32
12.23
12.95
13.34
13.26
12.77
12.01
11.12
10.25
9.36
8.41
7.27
5.93
4.35
2.56
0.62
-1.32
-3.07
-4.47
-5.42
-6.10
-6.80
-7.88
-9.49
-11.49
-13.53
-15.22
-16.34
-17.00
-17.42
-17.65
-17.41
-16.17
-13.50
-9.37
-4.38
0.53
4.52
7.31
9.28
11.18
13.60
16.57
19.45
21.29
21.35
19.51
16.28
12.63
9.44
7.16
5.68
4.58
3.49
2.38
1.54
1.25
1.47
1.70
1.20
-0.57
-3.63
-7.41
-11.03
-13.74
-15.22
-15.71
-15.75
-15.92
-16.49
-17.36
-18.05
-18.02
-16.83
-14.37
-10.93
-7.13
-3.61
-0.76
1.52
3.76
6.48
9.87
13.45
16.24
17.33
16.36
13.86
10.96
8.81
7.97
8.13
8.53
8.41
7.60
6.48
5.58
5.07
4.65
3.74
2.03
-0.26
-2.56
-4.22
-5.06
-5.36
-5.68
-6.45
-7.82
-9.65
-11.73
-13.90
-16.05
-17.98
-19.37
-19.80
-18.97
-16.76
-13.34
-8.97
-4.00
1.23
6.31
10.78
14.19
16.21
16.79
16.16
14.71
12.87
11.03
9.41
8.11
7.10
6.26
5.45
4.58
3.57
2.41
1.13
-0.17
-1.39
-2.35
-2.87
-2.84
-2.32
-1.56
-0.93
-0.82
-1.40
-2.65
-4.39
-6.39
-8.49
-10.55
-12.46
-14.03
-15.06
-15.34
-14.80
-13.54
-11.73
-9.47
-6.89
-3.99
-0.95
1.95
4.47
6.51
8.19
9.82
11.59
13.40
14.72
14.95
13.78
11.48
8.80
6.72
5.84
6.04
6.62
6.73
5.93
4.34
2.57
1.22
0.50
0.15
-0.33
-1.36
-2.96
-4.85
-6.63
-8.07
-9.25
-10.32
-11.44
-12.57
-13.52
-14.08
-14.04
-13.31
-11.79
-9.51
-6.68
-3.75
-1.22
0.58
1.65
2.37
3.21
4.49
6.12
7.74
9.04
9.94
10.64
11.41
12.21
12.71
12.43
11.15
9.13
7.00
5.38
4.52
4.20
3.89
3.15
1.90
0.33
-1.29
-2.93
-4.76
-6.95
-9.45
-11.84
-13.59
-14.35
-14.21
-13.74
-13.55
-13.98
-14.81
-15.48
-15.28
-13.70
-10.59
-6.17
-0.94
4.47
9.32
12.97
15.00
15.32
14.22
12.28
10.19
8.57
7.79
7.80
8.31
8.79
8.75
7.93
6.45
4.80
3.54
3.06
3.31
3.83
3.99
3.27
1.55
-0.93
-3.70
-6.38
-8.71
-10.60
-12.05
-13.14
-13.96
-14.58
-14.99
-15.13
-14.80
-13.78
-11.91
-9.22
-5.88
-2.15
1.64
5.14
8.08
10.19
11.30
11.41
10.75
9.75
8.98
8.87
9.52
10.64
11.68
12.05
11.43
9.86
7.71
5.43
3.52
2.24
1.77
2.09
2.97
3.92
4.26
3.35
0.89
-2.91
-7.43
-11.87
-15.65
-18.46
-20.22
-21.04
-20.95
-19.99
-18.20
-15.73
-12.82
-9.64
-6.24
-2.60
1.19
4.86
8.00
10.17
11.13
11.00
10.14
9.05
8.16
7.68
7.53
7.55
7.53
7.37
7.09
6.69
6.07
5.10
3.58
1.54
-0.82
-3.25
-5.47
-7.40
-9.08
-10.63
-12.02
-12.98
-13.25
-12.59
-11.19
-9.61
-8.57
-8.66
-9.91
-11.65
-12.79
-12.24
-9.50
-4.91
0.57
5.70
9.53
11.73
12.54
12.48
12.01
11.32
10.39
9.30
8.23
7.44
7.14
7.28
7.58
7.56
6.95
5.69
4.03
2.39
1.06
0.16
-0.49
-1.23
-2.32
-3.84
-5.64
-7.44
-9.07
-10.60
-12.22
-14.09
-16.04
-17.56
-17.87
-16.46
-13.23
-8.72
-3.75
0.93
4.94
8.30
11.23
13.84
15.94
17.22
17.39
16.26
14.02
11.09
8.04
5.52
4.02
3.74
4.48
5.74
6.83
7.21
6.57
4.94
2.61
-0.05
-2.71
-5.17
-7.28
-9.02
-10.43
-11.67
-12.84
-13.95
-14.92
-15.54
-15.61
-14.96
-13.43
-10.83
-6.95
-1.83
4.16
10.15
15.08
18.13
19.06
18.42
17.11
15.99
15.35
14.87
13.87
11.98
9.34
6.57
4.40
3.24
2.93
2.93
2.75
2.20
1.48
0.86
0.29
-0.57
-2.23
-4.86
-8.19
-11.54
-14.23
-16.01
-17.07
-17.79
-18.37
-18.66
-18.17
-16.56
-13.75
-10.04
-5.85
-1.48
2.92
7.26
11.26
14.55
16.73
17.64
17.53
16.83
15.94
15.03
14.04
12.78
11.18
9.34
7.47
5.77
4.29
3.04
2.03
1.28
0.74
0.23
-0.60
-2.05
-4.19
-6.79
-9.29
-11.16
-12.16
-12.43
-12.42
-12.57
-13.06
-13.72
-14.29
-14.49
-14.21
-13.49
-12.27
-10.41
-7.72
-4.08
0.33
5.04
9.47
13.07
15.58
16.99
17.51
17.31
16.49
15.10
13.19
10.95
8.78
7.10
6.27
6.37
7.14
8.01
8.36
7.73
6.05
3.59
0.79
-1.96
-4.56
-6.93
-9.06
-10.75
-11.82
-12.17
-12.13
-12.27
-13.18
-15.05
-17.42
-19.43
-20.05
-18.70
-15.39
-10.66
-5.34
-0.24
4.10
7.42
9.70
11.08
11.67
11.54
10.78
9.55
8.17
7.15
6.94
7.69
9.16
10.69
11.47
11.02
9.36
7.02
4.76
3.22
2.67
2.88
3.36
3.58
3.18
1.97
-0.05
-2.68
-5.71
-8.80
-11.49
-13.37
-14.20
-14.14
-13.70
-13.44
-13.63
-14.08
-14.15
-13.11
-10.66
-6.97
-2.72
1.31
4.66
7.29
9.41
11.28
12.89
13.88
13.95
12.96
11.26
9.38
7.85
6.90
6.47
6.22
5.85
5.34
4.84
4.52
4.37
4.10
3.21
1.37
-1.41
-4.69
-7.65
-9.62
-10.25
-9.78
-8.94
-8.53
-9.02
-10.28
-11.69
-12.50
-12.31
-11.21
-9.62
-7.88
-5.99
-3.59
-0.34
3.78
8.18
11.94
14.20
14.55
13.16
10.82
8.46
6.78
6.15
6.46
7.27
8.07
8.43
8.15
7.29
6.04
4.57
3.10
1.74
0.59
-0.34
-1.15
-2.04
-3.14
-4.54
-6.12
-7.79
-9.48
-11.25
-13.18
-15.24
-17.17
-18.54
-18.92
-18.03
-15.85
-12.60
-8.47
-3.71
1.32
6.10
10.07
12.84
14.35
14.93
15.03
14.92
14.55
13.70
12.24
10.36
8.56
7.34
6.95
7.14
7.44
7.41
6.92
6.15
5.40
4.78
4.15
3.17
1.56
-0.73
-3.40
-5.99
-8.21
-10.10
-12.02
-14.34
-17.08
-19.85
-21.87
-22.33
-20.88
-17.68
-13.33
-8.55
-3.98
0.11
3.69
6.86
9.75
12.35
14.61
16.42
17.59
17.89
17.29
15.97
14.38
13.13
12.59
12.69
13.01
12.86
11.78
9.73
7.03
4.29
2.11
0.86
0.52
0.71
0.87
0.44
-0.94
-3.25
-6.16
-9.15
-11.80
-14.00
-15.94
-17.92
-20.07
-22.06
-23.30
-23.11
-21.10
-17.44
-12.64
-7.45
-2.61
1.43
4.52
6.68
8.15
9.17
9.94
10.60
11.14
11.53
11.75
11.74
11.41
10.63
9.27
7.32
5.05
2.95
1.59
1.33
2.09
3.35
4.43
4.72
3.90
2.08
-0.38
-3.00
-5.38
-7.31
-8.78
-9.89
-10.87
-11.94
-13.24
-14.74
-16.18
-17.05
-16.76
-14.84
-11.23
-6.32
-0.87
4.19
8.07
10.31
10.94
10.26
8.80
7.13
5.79
5.27
5.88
7.62
10.05
12.40
13.88
13.94
12.48
9.88
6.83
3.95
1.70
0.33
-0.10
0.32
1.35
2.61
3.52
3.55
2.47
0.52
-1.72
-3.53
-4.51
-4.84
-5.23
-6.53
-9.23
-13.11
-17.23
-20.36
-21.52
-20.29
-16.97
-12.21
-6.76
-1.28
3.76
7.94
10.95
12.61
12.99
12.42
11.37
10.25
9.26
8.46
7.72
6.98
6.27
5.61
5.02
4.45
3.85
3.26
2.71
2.24
1.80
1.25
0.39
-0.92
-2.65
-4.63
-6.66
-8.56
-10.25
-11.77
-13.20
-14.55
-15.78
-16.76
-17.41
-17.61
-17.27
-16.22
-14.27
-11.29
-7.35
-2.66
2.43
7.38
11.62
14.63
16.06
15.91
14.55
12.71
11.20
10.58
10.90
11.72
12.32
12.11
10.95
9.09
7.08
5.33
4.06
3.23
2.65
2.22
1.78
1.25
0.47
-0.70
-2.33
-4.48
-7.06
-9.84
-12.52
-14.80
-16.43
-17.34
-17.68
-17.61
-17.13
-16.00
-13.78
-10.21
-5.54
-0.54
3.74
6.55
7.83
8.14
8.33
8.92
9.94
10.96
11.50
11.42
10.90
10.40
10.25
10.50
10.99
11.40
11.48
11.07
10.06
8.43
6.18
3.53
0.86
-1.35
-2.73
-3.22
-3.09
-2.82
-2.87
-3.46
-4.54
-5.89
-7.47
-9.42
-11.95
-15.10
-18.49
-21.35
-22.90
-22.67
-20.76
-17.69
-14.04
-10.15
-6.10
-1.88
2.39
6.32
9.40
11.17
11.55
10.83
9.57
8.44
7.98
8.39
9.54
10.97
12.09
12.48
12.04
11.06
9.93
8.95
8.06
6.96
5.33
3.25
1.07
-0.68
-1.67
-2.03
-2.27
-3.00
-4.60
-6.92
-9.48
-11.66
-13.03
-13.53
-13.51
-13.45
-13.69
-14.16
-14.38
-13.71
-11.72
-8.41
-4.24
0.08
3.94
7.04
9.35
10.99
12.02
12.42
12.12
11.13
9.65
8.10
6.88
6.25
6.22
6.51
6.71
6.45
5.55
4.10
2.39
0.77
-0.44
-1.06
-1.09
-0.65
-0.05
0.22
-0.39
-2.28
-5.46
-9.45
-13.51
-16.96
-19.46
-20.97
-21.61
-21.27
-19.66
-16.41
-11.49
-5.47
0.65
5.80
9.33
11.33
12.47
13.53
14.87
16.25
16.95
16.27
14.08
10.92
7.79
5.54
4.52
4.40
4.54
4.39
3.74
2.69
1.41
-0.03
-1.62
-3.25
-4.54
-5.01
-4.42
-3.08
-1.86
-1.75
-3.34
-6.43
-10.29
-14.09
-17.20
-19.35
-20.46
-20.29
-18.51
-14.89
-9.66
-3.66
1.89
5.93
8.06
8.68
8.75
9.13
10.14
11.48
12.56
12.87
12.38
11.38
10.38
9.69
9.35
9.14
8.80
8.24
7.55
6.96
6.49
6.08
5.48
4.48
3.11
1.55
0.01
-1.43
-2.83
-4.37
-6.21
-8.35
-10.64
-12.78
-14.47
-15.51
-15.85
-15.55
-14.72
-13.53
-12.02
-10.18
-7.84
-4.90
-1.41
2.29
5.73
8.46
10.28
11.38
12.05
12.57
12.88
12.78
12.11
10.93
9.55
8.32
7.45
6.88
6.40
5.87
5.28
4.62
3.86
2.84
1.49
-0.13
-1.76
-3.18
-4.35
-5.58
-7.28
-9.64
-12.41
-15.01
-16.83
-17.69
-17.80
-17.56
-17.19
-16.50
-15.08
-12.55
-8.93
-4.66
-0.34
3.51
6.63
9.02
10.74
11.74
11.88
11.12
9.70
8.11
6.98
6.75
7.44
8.60
9.48
9.51
8.50
6.86
5.26
4.29
4.00
3.96
3.58
2.48
0.90
-0.62
-1.58
-1.93
-2.04
-2.45
-3.43
-4.84
-6.40
-7.88
-9.36
-11.09
-13.17
-15.34
-17.08
-17.73
-16.87
-14.38
-10.47
-5.48
0.12
5.77
10.72
14.22
15.70
15.18
13.25
10.86
8.91
7.78
7.28
6.80
5.82
4.25
2.53
1.33
1.17
2.04
3.36
4.34
4.34
3.21
1.38
-0.51
-1.85
-2.26
-1.86
-1.12
-0.79
-1.48
-3.52
-6.70
-10.31
-13.39
-15.15
-15.26
-13.87
-11.40
-8.21
-4.50
-0.34
4.02
7.99
10.91
12.36
12.51
12.07
11.81
12.04
12.41
12.11
10.52
7.74
4.58
2.21
1.39
2.06
3.40
4.35
4.20
2.87
0.89
-1.02
-2.35
-3.03
-3.30
-3.69
-4.68
-6.51
-9.15
-12.30
-15.49
-18.26
-20.28
-21.33
-21.29
-20.05
-17.56
-13.87
-9.26
-4.23
0.72
5.10
8.72
11.63
14.00
15.98
17.50
18.29
18.05
16.63
14.15
11.15
8.45
6.75
6.33
6.83
7.48
7.44
6.23
3.98
1.32
-1.01
-2.43
-2.83
-2.48
-1.90
-1.53
-1.69
-2.56
-4.13
-6.35
-8.98
-11.61
-13.77
-15.16
-15.69
-15.55
-15.02
-14.16
-12.83
-10.66
-7.43
-3.27
1.22
5.23
8.15
9.86
10.67
11.14
11.61
12.08
12.25
11.75
10.42
8.39
6.14
4.24
3.15
3.07
3.82
4.96
5.97
6.52
6.52
6.07
5.20
3.76
1.53
-1.46
-4.84
-7.90
-9.97
-10.84
-10.95
-11.07
-11.82
-13.28
-14.93
-16.04
-16.02
-14.55
-11.75
-7.84
-3.12
1.97
6.92
11.06
13.81
14.84
14.28
12.54
10.31
8.34
7.17
7.03
7.65
8.39
8.42
7.17
4.64
1.53
-1.11
-2.44
-2.33
-1.32
-0.30
0.01
-0.50
-1.57
-2.83
-4.14
-5.73
-7.91
-10.79
-14.06
-17.05
-19.00
-19.49
-18.49
-16.34
-13.40
-9.93
-6.04
-1.85
2.38
6.24
9.39
11.59
12.82
13.29
13.29
13.04
12.58
11.80
10.57
8.85
6.89
5.04
3.71
3.07
3.01
3.15
3.06
2.56
1.72
0.82
0.13
-0.30
-0.70
-1.47
-2.92
-5.13
-7.79
-10.46
-12.64
-13.90
-14.04
-13.08
-11.25
-8.90
-6.42
-4.03
-1.79
0.42
2.72
5.12
7.53
9.77
11.70
13.12
13.88
13.74
12.63
10.53
7.75
4.84
2.47
1.19
1.14
2.03
3.26
4.22
4.48
3.95
2.80
1.40
0.07
-0.87
-1.25
-1.20
-1.16
-1.77
-3.65
-7.01
-11.41
-15.85
-19.12
-20.37
-19.53
-17.18
-14.15
-11.03
-7.90
-4.48
-0.50
3.93
8.38
12.18
14.78
16.00
15.89
14.73
12.88
10.72
8.62
6.93
5.86
5.45
5.53
5.78
5.90
5.71
5.25
4.59
3.83
2.90
1.54
-0.52
-3.36
-6.68
-9.85
-12.13
-13.10
-12.87
-12.10
-11.53
-11.71
-12.67
-13.92
-14.76
-14.63
-13.15
-10.21
-5.93
-0.65
5.13
10.68
15.21
18.12
19.08
18.17
15.91
13.00
10.19
8.15
7.20
7.36
8.28
9.45
10.39
10.69
10.19
8.88
6.92
4.60
2.33
0.52
-0.53
-0.81
-0.69
-0.73
-1.52
-3.32
-6.08
-9.36
-12.72
-15.70
-18.12
-19.80
-20.58
-20.32
-18.95
-16.68
-13.83
-10.81
-7.82
-4.72
-1.20
3.00
7.63
12.07
15.46
17.08
16.77
14.90
12.23
9.51
7.29
5.80
5.17
5.45
6.58
8.36
10.29
11.74
12.19
11.42
9.70
7.68
5.98
4.93
4.37
3.70
2.25
-0.25
-3.46
-6.60
-8.87
-9.97
-10.30
-10.64
-11.68
-13.52
-15.39
-16.17
-14.92
-11.49
-6.65
-1.67
2.31
4.83
6.25
7.32
8.53
9.84
10.67
10.30
8.48
5.58
2.51
0.31
-0.41
0.45
2.46
4.95
7.26
8.96
9.79
9.70
8.75
7.02
4.72
2.03
-0.76
-3.56
-6.24
-8.85
-11.38
-13.74
-15.77
-17.20
-17.95
-18.03
-17.66
-17.14
-16.81
-16.81
-17.07
-17.26
-16.76
-14.95
-11.41
-6.22
-0.08
5.93
10.73
13.62
14.57
14.13
12.91
11.41
9.75
7.97
6.24
4.98
4.60
5.14
6.16
6.90
6.81
5.82
4.44
3.38
3.14
3.56
3.99
3.63
1.98
-0.75
-3.91
-6.71
-8.72
-10.03
-11.15
-12.61
-14.62
-16.92
-18.93
-20.14
-20.22
-19.18
-17.12
-14.06
-9.89
-4.47
1.95
8.65
14.42
18.14
19.22
17.94
15.35
12.77
11.23
10.94
11.48
11.98
11.77
10.62
8.95
7.41
6.62
6.82
7.81
8.99
9.66
9.20
7.38
4.41
0.96
-2.19
-4.55
-6.16
-7.43
-8.95
-10.95
-13.21
-15.22
-16.63
-17.56
-18.51
-19.97
-21.83
-23.32
-23.25
-20.69
-15.54
-8.50
-0.80
6.43
12.43
16.97
20.08
21.82
22.28
21.58
20.00
18.04
16.25
15.11
14.73
14.91
15.17
14.93
13.71
11.34
8.00
4.24
0.77
-1.68
-2.77
-2.68
-2.09
-1.94
-3.05
-5.68
-9.30
-13.03
-15.96
-17.76
-18.76
-19.68
-21.00
-22.59
-23.70
-23.36
-21.00
-16.82
-11.72
-6.76
-2.65
0.53
3.20
5.86
8.69
11.38
13.50
14.72
15.07
14.82
14.26
13.62
12.92
12.16
11.33
10.55
9.76
8.87
7.78
6.55
5.51
5.00
5.19
5.78
6.05
5.16
2.63
-1.33
-5.92
-10.02
-12.82
-13.90
-13.47
-12.15
-10.83
-10.42
-11.43
-13.91
-17.20
-20.18
-21.57
-20.48
-16.74
-10.96
-4.32
1.85
6.53
9.30
10.27
10.05
9.33
8.74
8.68
9.23
10.20
11.19
11.83
11.85
11.28
10.32
9.23
8.26
7.49
7.00
6.79
6.89
7.20
7.45
7.14
5.77
3.09
-0.72
-4.91
-8.56
-10.99
-12.04
-12.07
-11.86
-12.11
-13.20
-15.04
-17.12
-18.77
-19.28
-18.18
-15.31
-10.80
-5.13
1.00
6.73
11.35
14.36
15.76
15.99
15.72
15.55
15.75
16.27
16.69
16.62
15.76
14.12
11.95
9.56
7.26
5.32
3.91
3.03
2.54
2.04
1.08
-0.73
-3.42
-6.61
-9.65
-11.88
-12.89
-12.77
-12.01
-11.36
-11.48
-12.72
-14.87
-17.32
-19.25
-19.87
-18.73
-15.89
-11.85
-7.33
-2.96
1.00
4.69
8.35
12.05
15.41
17.82
18.67
17.84
15.67
12.92
10.35
8.40
7.12
6.26
5.50
4.64
3.72
2.89
2.36
2.25
2.47
2.76
2.69
1.89
0.27
-1.91
-4.08
-5.72
-6.71
-7.47
-8.74
-11.14
-14.73
-18.85
-22.44
-24.44
-24.23
-21.76
-17.42
-11.82
-5.60
0.69
6.47
11.12
14.18
15.57
15.65
15.04
14.36
13.78
13.16
12.18
10.74
9.19
8.09
7.85
8.48
9.43
9.95
9.42
7.77
5.52
3.50
2.40
2.38
3.02
3.46
2.83
0.62
-2.98
-7.16
-10.89
-13.37
-14.35
-14.21
-13.68
-13.37
-13.63
-14.37
-15.29
-16.04
-16.36
-16.04
-14.84
-12.54
-9.01
-4.38
0.97
6.48
11.52
15.62
18.44
19.87
19.92
18.71
16.56
13.84
11.01
8.50
6.61
5.50
5.14
5.44
6.20
7.08
7.64
7.44
6.25
4.16
1.56
-1.08
-3.45
-5.53
-7.36
-9.02
-10.36
-11.17
-11.37
-11.20
-11.18
-11.80
-13.28
-15.38
-17.48
-18.81
-18.74
-16.94
-13.39
-8.39
-2.50
3.49
8.75
12.63
14.82
15.53
15.26
14.56
13.76
13.01
12.28
11.56
10.83
10.03
9.08
7.85
6.28
4.39
2.43
0.68
-0.65
-1.50
-2.02
-2.43
-2.93
-3.72
-4.82
-6.14
-7.56
-8.89
-10.01
-10.96
-11.91
-13.03
-14.33
-15.51
-16.09
-15.58
-13.83
-11.08
-7.85
-4.63
-1.58
1.44
4.68
8.02
11.01
13.03
13.67
13.05
11.82
10.76
10.24
10.11
9.81
8.77
7.00
5.01
3.56
3.24
4.02
5.42
6.67
7.21
6.75
5.32
3.04
0.12
-3.17
-6.39
-9.03
-10.75
-11.57
-12.00
-12.72
-14.25
-16.59
-19.09
-20.74
-20.63
-18.35
-14.20
-8.91
-3.29
2.09
6.93
11.20
14.70
17.14
18.06
17.22
14.86
11.73
8.95
7.50
7.82
9.49
11.48
12.53
11.82
9.29
5.54
1.57
-1.76
-4.03
-5.32
-5.95
-6.34
-6.84
-7.56
-8.51
-9.63
-10.88
-12.34
-14.08
-16.02
-17.87
-19.17
-19.44
-18.33
-15.83
-12.28
-8.22
-4.16
-0.44
2.82
5.72
8.43
10.99
13.44
15.67
17.50
18.75
19.24
18.96
17.96
16.48
14.66
12.60
10.34
7.90
5.45
3.33
1.84
1.13
1.02
1.07
0.80
-0.12
-1.73
-3.74
-5.78
-7.60
-9.24
-11.00
-13.19
-15.88
-18.70
-21.08
-22.40
-22.29
-20.74
-17.94
-14.11
-9.45
-4.25
1.17
6.32
10.73
14.06
16.08
16.87
16.60
15.63
14.42
13.42
12.93
13.02
13.45
13.80
13.64
12.73
11.15
9.29
7.48
5.91
4.53
3.18
1.74
0.28
-1.10
-2.34
-3.48
-4.72
-6.32
-8.42
-10.98
-13.82
-16.62
-19.06
-20.94
-22.16
-22.57
-22.02
-20.35
-17.49
-13.56
-8.85
-3.81
1.06
5.32
8.70
11.22
13.09
14.66
16.09
17.21
17.52
16.60
14.32
11.16
8.02
5.77
4.83
4.97
5.53
5.80
5.46
4.64
3.75
3.13
2.85
2.68
2.26
1.33
-0.16
-2.07
-4.13
-6.08
-7.70
-8.83
-9.54
-10.01
-10.66
-11.96
-14.22
-17.22
-20.25
-22.12
-21.72
-18.45
-12.71
-5.68
1.04
6.32
9.81
11.97
13.59
15.20
16.78
17.87
18.06
17.27
15.97
14.75
13.91
13.27
12.36
10.74
8.38
5.71
3.29
1.52
0.41
-0.27
-0.79
-1.32
-1.83
-2.33
-2.93
-3.91
-5.46
-7.52
-9.70
-11.51
-12.65
-13.15
-13.32
-13.55
-14.00
-14.66
-15.29
-15.53
-14.99
-13.40
-10.59
-6.56
-1.65
3.52
8.24
11.98
14.59
16.22
17.08
17.24
16.57
14.99
12.76
10.50
8.97
8.63
9.32
10.23
10.46
9.35
6.88
3.65
0.53
-1.68
-2.62
-2.42
-1.57
-0.74
-0.49
-1.20
-2.85
-5.20
-7.93
-10.84
-13.85
-17.02
-20.20
-22.90
-24.29
-23.66
-20.75
-15.97
-10.35
-4.93
-0.35
3.39
6.75
10.19
13.79
17.14
19.54
20.47
19.91
18.36
16.55
15.04
13.88
12.76
11.23
9.07
6.55
4.21
2.65
2.05
2.09
2.12
1.59
0.21
-1.87
-4.30
-6.76
-9.17
-11.60
-14.09
-16.57
-18.81
-20.54
-21.57
-21.87
-21.44
-20.28
-18.31
-15.40
-11.49
-6.67
-1.31
4.14
9.16
13.32
16.39
18.35
19.33
19.44
18.82
17.51
15.66
13.46
11.26
9.51
8.45
8.14
8.30
8.42
7.98
6.71
4.71
2.35
0.12
-1.71
-3.13
-4.40
-5.72
-7.16
-8.68
-10.27
-12.13
-14.42
-17.22
-20.11
-22.36
-23.16
-22.15
-19.59
-16.14
-12.54
-9.08
-5.63
-1.78
2.76
7.96
13.39
18.37
22.27
24.64
25.35
24.52
22.55
19.89
16.98
14.16
11.67
9.69
8.38
7.88
8.18
9.06
9.96
10.15
9.01
6.24
2.10
-2.71
-7.28
-10.80
-12.91
-13.68
-13.66
-13.55
-13.94
-15.10
-16.94
-19.07
-20.97
-22.20
-22.40
-21.44
-19.30
-16.05
-11.80
-6.74
-1.19
4.41
9.52
13.70
16.82
19.09
20.87
22.45
23.65
24.00
22.93
20.17
16.05
11.39
7.30
4.62
3.60
3.90
4.75
5.42
5.48
4.99
4.23
3.39
2.42
0.97
-1.26
-4.34
-7.88
-11.24
-13.76
-15.20
-15.85
-16.28
-17.11
-18.65
-20.67
-22.61
-23.69
-23.31
-21.23
-17.61
-12.89
-7.56
-2.10
3.09
7.75
11.60
14.34
15.80
16.01
15.25
13.94
12.53
11.34
10.50
9.99
9.79
9.89
10.23
10.67
10.89
10.57
9.53
7.85
5.86
3.94
2.34
1.02
-0.23
-1.60
-3.12
-4.70
-6.30
-8.00
-9.99
-12.35
-14.88
-17.21
-18.93
-19.83
-20.00
-19.65
-18.85
-17.32
-14.69
-10.65
-5.41
0.38
5.90
10.48
13.84
16.03
17.18
17.30
16.37
14.47
12.05
9.90
8.82
9.30
11.11
13.33
14.79
14.53
12.38
9.07
5.77
3.57
2.89
3.34
3.92
3.62
1.91
-1.06
-4.65
-8.00
-10.51
-12.00
-12.66
-12.88
-13.08
-13.58
-14.45
-15.52
-16.41
-16.66
-15.87
-14.00
-11.27
-8.09
-4.76
-1.33
2.39
6.52
10.97
15.20
18.44
19.94
19.33
16.89
13.42
10.03
7.68
6.85
7.37
8.52
9.39
9.25
7.84
5.42
2.54
-0.17
-2.33
-3.78
-4.65
-5.15
-5.59
-6.20
-7.11
-8.22
-9.32
-10.17
-10.82
-11.53
-12.73
-14.75
-17.48
-20.36
-22.57
-23.29
-22.09
-19.01
-14.42
-8.76
-2.53
3.82
9.71
14.54
17.84
19.38
19.36
18.26
16.73
15.20
13.91
12.85
11.90
11.01
10.19
9.52
8.98
8.50
7.93
7.30
6.71
6.33
6.12
5.77
4.79
2.76
-0.44
-4.40
-8.30
-11.27
-12.85
-13.22
-13.19
-13.80
-15.67
-18.69
-21.92
-24.08
-24.19
-21.97
-17.88
-12.78
-7.50
-2.56
1.80
5.49
8.33
10.08
10.65
10.28
9.50
9.00
9.29
10.40
11.97
13.35
13.96
13.54
12.21
10.49
8.95
7.92
7.28
6.62
5.49
3.72
1.51
-0.71
-2.62
-4.17
-5.57
-7.08
-8.74
-10.42
-11.91
-13.06
-13.98
-14.93
-16.07
-17.34
-18.44
-18.99
-18.64
-17.22
-14.66
-11.07
-6.63
-1.68
3.48
8.52
13.17
17.16
20.12
21.56
20.98
18.29
13.89
8.80
4.39
1.82
1.67
3.63
6.72
9.62
11.26
11.04
9.04
5.88
2.48
-0.29
-1.91
-2.41
-2.33
-2.36
-2.97
-4.21
-5.80
-7.34
-8.73
-10.24
-12.16
-14.61
-17.23
-19.35
-20.20
-19.34
-16.70
-12.59
-7.47
-1.89
3.67
8.74
12.94
15.97
17.72
18.25
17.72
16.28
14.05
11.12
7.71
4.22
1.29
-0.54
-0.92
-0.03
1.53
2.96
3.55
3.06
1.72
0.00
-1.65
-3.15
-4.75
-6.70
-8.98
-11.22
-12.81
-13.50
-13.60
-13.89
-15.10
-17.30
-19.74
-21.16
-20.47
-17.28
-12.16
-6.26
-0.60
4.29
8.40
11.89
14.74
16.54
16.89
15.71
13.41
10.82
8.75
7.67
7.59
8.22
9.13
9.94
10.32
10.10
9.24
7.86
6.22
4.60
3.16
1.75
0.01
-2.31
-5.12
-7.95
-10.08
-11.04
-10.82
-10.00
-9.54
-10.21
-12.26
-15.16
-17.87
-19.27
-18.66
-15.93
-11.58
-6.52
-1.54
2.84
6.51
9.66
12.47
14.94
16.77
17.64
17.45
16.46
15.16
14.01
13.09
12.09
10.51
8.11
5.12
2.18
0.10
-0.71
-0.41
0.45
1.16
1.31
0.90
0.14
-0.77
-1.87
-3.44
-5.75
-8.76
-12.15
-15.36
-17.86
-19.50
-20.37
-20.75
-20.76
-20.26
-18.82
-16.10
-12.15
-7.47
-2.90
0.86
3.48
5.13
6.40
7.83
9.75
11.99
14.07
15.33
15.33
13.97
11.72
9.31
7.36
6.25
5.88
5.91
5.99
6.00
6.04
6.29
6.73
6.96
6.45
4.83
2.10
-1.26
-4.47
-6.88
-8.19
-8.57
-8.57
-8.72
-9.49
-10.95
-12.85
-14.70
-15.93
-16.03
-14.66
-11.81
-7.77
-3.21
1.19
4.75
7.17
8.51
9.07
9.20
9.07
8.69
8.02
7.11
6.14
5.35
4.93
4.90
5.21
5.69
6.20
6.56
6.62
6.20
5.13
3.44
1.25
-1.19
-3.61
-5.69
-7.30
-8.45
-9.29
-10.15
-11.25
-12.73
-14.37
-15.80
-16.44
-15.90
-14.02
-11.02
-7.37
-3.58
-0.06
2.95
5.46
7.62
9.65
11.67
13.59
15.05
15.56
14.76
12.73
9.98
7.27
5.29
4.37
4.41
5.01
5.73
6.24
6.36
6.03
5.20
3.83
1.92
-0.47
-3.19
-6.09
-8.95
-11.49
-13.34
-14.26
-14.26
-13.75
-13.48
-14.02
-15.37
-16.77
-16.98
-14.95
-10.43
-4.19
2.30
7.57
10.79
11.97
11.72
10.85
10.02
9.56
9.59
10.09
10.91
11.72
12.18
12.03
11.22
10.06
8.79
7.57
6.35
4.98
3.43
1.81
0.27
-1.10
-2.47
-4.18
-6.47
-9.29
-12.30
-15.00
-17.01
-18.19
-18.67
-18.62
-18.15
-17.22
-15.71
-13.42
-10.17
-5.95
-1.01
4.12
8.71
12.12
14.00
14.43
13.84
12.86
12.02
11.54
11.38
11.38
11.34
11.21
11.01
10.79
10.49
10.02
9.22
8.10
6.79
5.59
4.72
4.21
3.70
2.62
0.47
-2.90
-7.12
-11.51
-15.29
-17.95
-19.37
-19.79
-19.58
-19.02
-18.22
-17.05
-15.33
-12.93
-9.75
-5.86
-1.48
2.92
6.80
9.62
11.21
11.81
11.91
12.11
12.68
13.58
14.45
14.94
14.87
14.31
13.44
12.36
10.92
8.96
6.44
3.59
0.94
-1.07
-2.23
-2.72
-2.96
-3.35
-4.06
-4.99
-5.95
-6.87
-7.85
-9.22
-11.30
-14.13
-17.32
-20.11
-21.61
-21.17
-18.73
-14.75
-10.03
-5.34
-1.13
2.44
5.37
7.59
9.01
9.66
9.76
9.80
10.21
11.11
12.14
12.70
12.31
11.04
9.45
8.25
7.90
8.27
8.76
8.67
7.59
5.61
3.15
0.75
-1.24
-2.84
-4.26
-5.76
-7.48
-9.27
-10.86
-12.07
-13.00
-13.98
-15.29
-16.74
-17.53
-16.56
-13.07
-7.24
-0.24
6.20
10.62
12.58
12.76
12.33
12.30
12.91
13.71
13.97
13.25
11.60
9.51
7.49
5.85
4.66
3.80
3.08
2.39
1.69
1.02
0.39
-0.19
-0.84
-1.75
-3.04
-4.81
-6.93
-9.11
-11.02
-12.48
-13.58
-14.71
-16.29
-18.47
-20.93
-22.83
-23.12
-21.00
-16.25
-9.31
-1.20
6.87
13.81
18.92
21.90
22.83
22.05
20.13
17.71
15.43
13.76
12.95
12.82
12.97
12.85
12.06
10.46
8.21
5.74
3.47
1.78
0.70
-0.00
-0.63
-1.43
-2.38
-3.32
-4.15
-4.95
-6.04
-7.84
-10.48
-13.76
-17.07
-19.74
-21.26
-21.51
-20.65
-18.89
-16.30
-12.83
-8.43
-3.27
2.25
7.56
12.14
15.65
18.01
19.29
19.53
18.78
17.04
14.56
11.76
9.22
7.38
6.40
6.14
6.26
6.46
6.62
6.79
7.03
7.29
7.36
6.95
5.89
4.27
2.34
0.33
-1.62
-3.66
-6.00
-8.76
-11.88
-15.12
-18.12
-20.63
-22.47
-23.50
-23.69
-22.95
-21.22
-18.52
-14.88
-10.38
-5.13
0.72
6.76
12.44
17.01
19.88
20.84
20.23
18.67
16.81
15.09
13.54
12.14
10.88
9.89
9.33
9.25
9.40
9.33
8.69
7.27
5.22
2.85
0.53
-1.49
-3.11
-4.38
-5.40
-6.44
-7.80
-9.79
-12.49
-15.69
-18.88
-21.44
-22.80
-22.73
-21.27
-18.74
-15.44
-11.61
-7.35
-2.84
1.63
5.58
8.56
10.38
11.22
11.63
12.15
12.99
13.98
14.61
14.38
13.12
11.19
9.28
8.09
8.02
9.02
10.54
11.77
11.99
10.86
8.59
5.77
2.98
0.54
-1.56
-3.48
-5.31
-7.00
-8.44
-9.66
-10.90
-12.53
-14.73
-17.37
-19.98
-21.98
-22.94
-22.65
-21.18
-18.64
-15.21
-11.16
-6.92
-2.97
0.31
2.73
4.31
5.18
5.46
5.36
5.17
5.25
5.87
6.96
8.07
8.63
8.25
7.15
5.97
5.33
5.37
5.54
4.90
2.73
-0.81
-4.77
-7.82
-9.02
-8.26
-6.26
-4.01
-2.17
-0.88
0.19
1.26
2.25
2.75
2.41
1.29
-0.01
-0.62
0.21
2.71
6.45
10.60
14.31
16.97
18.42
18.87
18.72
18.31
17.77
17.04
15.85
14.06
11.65
8.76
5.49
1.88
-2.13
-6.47
-10.86
-14.84
-17.83
-19.44
-19.62
-18.65
-17.17
-15.87
-15.28
-15.63
-16.77
-18.35
-19.99
-21.46
-22.79
-24.09
-25.39
-26.27
-26.00
-23.75
-19.16
-12.58
-5.10
2.01
7.86
12.24
15.53
18.36
21.07
23.64
25.63
26.60
26.35
24.97
22.77
20.10
17.22
14.33
11.62
9.32
7.60
6.48
5.74
5.08
4.22
3.03
1.53
-0.08
-1.73
-3.37
-5.04
-6.77
-8.50
-10.05
-11.26
-12.10
-12.76
-13.61
-14.96
-16.82
-18.71
-19.82
-19.26
-16.52
-11.59
-5.19
1.53
7.40
11.64
14.19
15.47
16.15
16.68
17.10
17.10
16.36
14.88
12.99
11.26
10.07
9.39
8.82
7.96
6.61
4.95
3.35
1.91
0.44
-1.43
-4.04
-7.31
-10.83
-14.04
-16.59
-18.37
-19.67
-20.82
-22.07
-23.43
-24.72
-25.64
-25.87
-25.29
-23.86
-21.78
-19.20
-16.15
-12.43
-7.71
-1.83
5.02
12.27
19.16
25.00
29.50
32.60
34.36
34.82
33.95
31.83
28.77
25.25
21.72
18.43
15.25
11.90
8.24
4.29
0.22
-3.79
-7.77
-11.82
-15.87
-19.56
-22.34
-23.65
-23.36
-21.83
-19.86
-18.27
-17.62
-17.97
-18.97
-20.01
-20.48
-19.89
-17.91
-14.45
-9.59
-3.71
2.63
8.80
14.24
18.57
21.59
23.32
23.87
23.44
22.25
20.54
18.57
16.61
14.86
13.39
12.21
11.27
10.50
9.83
9.15
8.31
7.10
5.43
3.36
1.06
-1.13
-2.91
-4.09
-4.74
-5.15
-5.68
-6.60
-8.02
-9.93
-12.25
-14.88
-17.71
-20.60
-23.24
-25.14
-25.69
-24.35
-20.84
-15.38
-8.63
-1.60
4.74
9.72
13.11
15.08
16.13
16.81
17.57
18.59
19.80
20.92
21.55
21.36
20.16
18.08
15.48
12.79
10.30
8.07
5.99
3.96
2.07
0.45
-0.77
-1.85
-3.21
-5.26
-8.02
-11.01
-13.52
-15.01
-15.54
-15.64
-16.04
-17.05
-18.40
-19.45
-19.62
-18.71
-16.92
-14.52
-11.53
-7.73
-2.84
3.10
9.47
15.26
19.40
21.28
21.01
19.31
17.17
15.32
14.02
13.10
12.22
11.20
10.12
9.13
8.35
7.69
6.83
5.47
3.50
1.07
-1.44
-3.69
-5.44
-6.60
-7.26
-7.60
-7.87
-8.42
-9.50
-11.14
-13.17
-15.24
-17.03
-18.45
-19.46
-19.98
-19.69
-18.09
-14.72
-9.55
-3.07
3.81
9.96
14.57
17.32
18.39
18.28
17.54
16.56
15.53
14.51
13.53
12.63
11.85
11.13
10.35
9.35
8.05
6.57
5.11
3.90
3.04
2.36
1.58
0.42
-1.22
-3.24
-5.38
-7.42
-9.16
-10.55
-11.67
-12.69
-13.83
-15.37
-17.44
-19.80
-21.86
-22.87
-22.19
-19.63
-15.60
-10.84
-6.09
-1.75
2.18
5.91
9.52
12.81
15.37
16.92
17.41
17.06
16.05
14.47
12.32
9.74
7.17
5.25
4.50
5.05
6.50
8.12
9.22
9.41
8.76
7.52
5.86
3.82
1.29
-1.78
-5.12
-8.31
-10.84
-12.36
-12.85
-12.66
-12.38
-12.56
-13.49
-14.90
-16.19
-16.67
-15.94
-13.98
-11.15
-7.79
-4.07
0.02
4.42
8.83
12.76
15.68
17.32
17.69
17.11
15.93
14.49
13.01
11.57
10.30
9.19
8.16
7.10
5.86
4.44
2.95
1.61
0.48
-0.54
-1.68
-3.12
-4.78
-6.40
-7.71
-8.62
-9.36
-10.45
-12.44
-15.58
-19.55
-23.58
-26.75
-28.36
-28.20
-26.44
-23.45
-19.43
-14.33
-8.03
-0.62
7.16
14.19
19.20
21.38
20.86
18.58
15.83
13.58
12.15
11.20
10.16
8.69
6.93
5.44
4.78
5.14
6.18
7.23
7.59
6.96
5.47
3.59
1.85
0.55
-0.31
-0.97
-1.78
-3.02
-4.86
-7.37
-10.60
-14.43
-18.59
-22.51
-25.32
-26.27
-24.82
-21.09
-15.74
-9.69
-3.75
1.67
6.52
10.91
14.80
17.97
20.15
21.20
21.25
20.67
19.76
18.69
17.48
16.08
14.40
12.41
10.14
7.66
5.12
2.82
1.13
0.32
0.34
0.77
0.88
0.00
-2.02
-4.82
-7.68
-9.86
-11.08
-11.59
-12.00
-12.89
-14.53
-16.66
-18.66
-19.95
-20.18
-19.44
-18.00
-16.04
-13.50
-10.06
-5.44
0.31
6.65
12.64
17.35
20.15
20.94
20.11
18.34
16.34
14.67
13.69
13.47
13.75
14.08
13.88
12.67
10.32
7.10
3.63
0.67
-1.26
-2.06
-2.04
-1.79
-1.96
-2.91
-4.61
-6.79
-8.97
-10.72
-11.84
-12.39
-12.73
-13.36
-14.72
-16.94
-19.72
-22.37
-24.03
-23.94
-21.82
-17.86
-12.68
-7.06
-1.63
3.26
7.52
11.16
14.07
16.05
16.88
16.58
15.38
13.79
12.26
11.14
10.58
10.48
10.71
11.00
11.02
10.45
9.12
7.12
4.81
2.66
0.94
-0.41
-1.70
-3.16
-4.74
-6.07
-6.77
-6.78
-6.56
-6.90
-8.40
-11.12
-14.48
-17.56
-19.50
-19.85
-18.65
-16.16
-12.71
-8.44
-3.45
2.04
7.65
12.68
16.43
18.37
18.32
16.59
13.82
10.81
8.24
6.59
5.99
6.37
7.42
8.68
9.60
9.74
8.85
7.09
4.86
2.74
1.14
0.30
0.15
0.32
0.37
-0.21
-1.75
-4.26
-7.47
-10.90
-14.05
-16.59
-18.45
-19.80
-20.79
-21.38
-21.28
-20.12
-17.69
-14.16
-9.84
-5.18
-0.40
4.46
9.43
14.36
18.77
21.96
23.28
22.45
19.79
16.13
12.50
9.84
8.62
8.73
9.64
10.62
10.97
10.31
8.61
6.21
3.69
1.60
0.30
-0.26
-0.52
-1.06
-2.31
-4.40
-7.09
-10.03
-12.77
-15.08
-16.91
-18.36
-19.58
-20.67
-21.53
-21.94
-21.53
-19.96
-17.06
-12.95
-8.07
-2.92
2.08
6.76
11.11
15.12
18.56
21.06
22.31
22.32
21.47
20.27
19.08
17.86
16.31
14.14
11.39
8.57
6.35
5.09
4.57
4.03
2.61
-0.05
-3.52
-6.79
-8.73
-8.86
-7.53
-5.88
-5.21
-6.38
-9.47
-13.78
-18.21
-21.79
-24.00
-24.77
-24.40
-23.12
-21.00
-17.91
-13.72
-8.44
-2.36
3.98
9.92
14.84
18.27
19.91
19.78
18.22
15.88
13.59
12.01
11.40
11.50
11.68
11.40
10.48
9.23
8.17
7.64
7.51
7.25
6.20
4.06
1.09
-2.13
-4.96
-7.13
-8.75
-10.12
-11.43
-12.60
-13.37
-13.65
-13.65
-13.85
-14.75
-16.49
-18.67
-20.50
-21.07
-19.76
-16.44
-11.43
-5.37
1.04
7.19
12.54
16.71
19.41
20.51
20.09
18.49
16.31
14.21
12.64
11.72
11.12
10.37
9.12
7.33
5.41
3.89
3.17
3.30
3.93
4.45
4.23
2.93
0.60
-2.33
-5.29
-7.65
-9.10
-9.78
-10.29
-11.37
-13.51
-16.59
-19.90
-22.40
-23.17
-21.74
-18.29
-13.41
-7.84
-2.20
3.09
7.76
11.61
14.46
16.21
16.85
16.54
15.63
14.48
13.38
12.54
11.99
11.60
11.12
10.28
8.97
7.26
5.45
3.94
2.93
2.26
1.44
-0.09
-2.56
-5.73
-8.94
-11.53
-13.19
-14.20
-15.18
-16.67
-18.78
-21.04
-22.69
-23.03
-21.75
-18.90
-14.79
-9.84
-4.47
0.88
5.73
9.67
12.46
14.19
15.10
15.59
15.97
16.38
16.80
17.10
17.08
16.59
15.52
13.90
11.96
10.06
8.60
7.77
7.45
7.21
6.58
5.32
3.47
1.28
-1.04
-3.45
-6.07
-9.01
-12.18
-15.17
-17.43
-18.60
-18.76
-18.39
-18.13
-18.41
-19.08
-19.49
-18.80
-16.40
-12.21
-6.71
-0.63
5.32
10.71
15.30
18.86
21.03
21.43
19.96
17.02
13.50
10.43
8.57
8.04
8.40
8.94
9.09
8.66
7.79
6.75
5.70
4.62
3.37
1.84
-0.00
-2.05
-4.15
-6.17
-7.97
-9.55
-10.98
-12.32
-13.69
-15.18
-16.78
-18.33
-19.53
-19.97
-19.27
-17.25
-13.95
-9.63
-4.65
0.59
5.77
10.59
14.70
17.72
19.39
19.61
18.57
16.71
14.59
12.62
11.02
9.77
8.76
7.95
7.33
6.91
6.66
6.47
6.07
5.31
4.15
2.67
1.08
-0.47
-1.98
-3.61
-5.63
-8.20
-11.19
-14.26
-16.94
-18.92
-20.18
-20.99
-21.67
-22.29
-22.55
-21.82
-19.52
-15.44
-9.92
-3.74
2.23
7.40
11.52
14.60
16.73
17.87
17.95
17.11
15.62
13.97
12.63
11.77
11.24
10.67
9.75
8.41
6.75
5.07
3.65
2.58
1.84
1.28
0.74
0.05
-0.90
-2.13
-3.60
-5.20
-6.83
-8.39
-9.85
-11.23
-12.64
-14.18
-15.93
-17.75
-19.29
-19.98
-19.20
-16.49
-11.86
-5.82
0.71
6.70
11.32
14.15
15.27
15.14
14.34
13.42
12.75
12.41
12.32
12.18
11.75
10.83
9.37
7.49
5.43
3.44
1.70
0.39
-0.48
-0.95
-1.17
-1.32
-1.61
-2.14
-2.96
-4.02
-5.34
-7.06
-9.40
-12.48
-16.15
-19.92
-23.04
-24.74
-24.54
-22.36
-18.52
-13.57
-8.04
-2.37
3.15
8.27
12.88
16.85
20.05
22.18
22.83
21.67
18.64
14.25
9.51
5.66
3.70
3.93
5.86
8.41
10.41
11.01
9.99
7.73
4.81
1.80
-0.95
-3.34
-5.42
-7.33
-9.21
-11.09
-12.91
-14.58
-16.02
-17.30
-18.68
-20.38
-22.47
-24.59
-25.92
-25.47
-22.49
-16.99
-9.80
-2.19
4.66
10.10
14.16
17.22
19.66
21.62
23.05
23.83
23.84
23.05
21.42
18.95
15.86
12.57
9.71
7.86
7.23
7.60
8.31
8.55
7.76
5.76
2.77
-0.75
-4.23
-7.17
-9.38
-10.96
-12.28
-13.71
-15.44
-17.38
-19.20
-20.64
-21.61
-22.21
-22.51
-22.34
-21.22
-18.65
-14.30
-8.37
-1.54
5.24
11.11
15.47
18.18
19.38
19.42
18.79
17.99
17.37
17.18
17.33
17.54
17.32
16.31
14.36
11.69
8.80
6.29
4.62
3.78
3.40
2.76
1.19
-1.60
-5.39
-9.44
-12.79
-14.68
-14.87
-13.77
-12.20
-11.14
-11.26
-12.76
-15.24
-17.91
-19.87
-20.39
-19.12
-16.10
-11.76
-6.64
-1.28
3.91
8.58
12.36
14.93
16.06
15.87
14.84
13.68
13.04
13.16
13.72
14.13
13.90
12.92
11.52
10.20
9.25
8.62
7.99
7.07
5.77
4.23
2.46
0.47
-1.93
-4.83
-8.14
-11.56
-14.71
-17.28
-19.16
-20.40
-21.12
-21.51
-21.78
-21.97
-22.00
-21.44
-19.66
-16.12
-10.64
-3.62
3.98
10.95
16.29
19.42
20.42
19.77
18.14
16.16
14.26
12.62
11.23
10.11
9.23
8.63
8.25
7.96
7.55
6.76
5.47
3.76
1.81
-0.18
-2.10
-3.88
-5.53
-7.09
-8.67
-10.40
-12.32
-14.45
-16.62
-18.51
-19.82
-20.38
-20.19
-19.38
-17.97
-15.72
-12.34
-7.65
-1.77
4.73
11.01
16.22
19.79
21.57
21.77
20.84
19.30
17.57
15.96
14.60
13.52
12.63
11.79
10.83
9.60
8.03
6.19
4.24
2.41
0.83
-0.65
-2.31
-4.44
-7.07
-9.86
-12.25
-13.80
-14.47
-14.64
-14.90
-15.69
-17.12
-18.85
-20.31
-20.88
-20.09
-17.70
-13.71
-8.40
-2.28
4.03
9.92
14.96
18.91
21.65
23.09
23.16
21.83
19.28
15.89
12.23
8.89
6.29
4.67
4.01
4.10
4.62
5.16
5.32
4.75
3.25
0.96
-1.72
-4.25
-6.21
-7.53
-8.54
-9.70
-11.38
-13.55
-15.78
-17.51
-18.40
-18.44
-17.92
-17.13
-16.14
-14.68
-12.35
-8.84
-4.14
1.37
7.10
12.30
16.31
18.77
19.70
19.41
18.43
17.15
15.79
14.32
12.63
10.75
8.93
7.58
6.93
6.84
6.81
6.24
4.73
2.32
-0.55
-3.20
-5.05
-5.87
-5.78
-5.30
-5.11
-5.80
-7.64
-10.50
-13.83
-16.91
-19.14
-20.29
-20.51
-20.05
-18.95
-16.94
-13.51
-8.44
-2.10
4.50
10.15
13.97
15.84
16.39
16.51
16.84
17.42
17.73
17.20
15.58
13.20
10.71
8.71
7.40
6.60
5.90
5.03
3.92
2.68
1.49
0.32
-0.89
-2.18
-3.45
-4.52
-5.27
-5.74
-6.29
-7.30
-8.99
-11.27
-13.77
-16.00
-17.61
-18.36
-18.08
-16.67
-13.98
-9.96
-4.86
0.78
6.02
10.06
12.36
13.01
12.61
11.96
11.72
12.04
12.69
13.23
13.31
12.81
11.79
10.38
8.61
6.46
4.00
1.51
-0.63
-2.08
-2.77
-2.97
-3.22
-4.04
-5.73
-8.16
-10.85
-13.21
-14.76
-15.40
-15.38
-15.16
-15.13
-15.30
-15.33
-14.58
-12.51
-8.94
-4.19
0.88
5.39
8.65
10.48
11.17
11.14
10.79
10.23
9.37
8.14
6.62
5.18
4.22
4.01
4.46
5.09
5.35
4.87
3.72
2.30
1.12
0.43
0.06
-0.42
-1.47
-3.27
-5.69
-8.42
-11.15
-13.76
-16.24
-18.53
-20.34
-21.23
-20.74
-18.69
-15.26
-10.89
-6.08
-1.13
3.83
8.58
12.83
16.12
18.00
18.36
17.45
15.83
14.08
12.61
11.57
10.86
10.40
10.19
10.23
10.42
10.45
9.93
8.62
6.55
4.10
1.76
-0.04
-1.23
-2.01
-2.86
-4.15
-6.05
-8.42
-10.89
-13.17
-15.09
-16.68
-18.04
-19.08
-19.52
-18.86
-16.62
-12.66
-7.40
-1.77
3.16
6.64
8.59
9.51
10.22
11.27
12.74
14.16
14.88
14.53
13.15
11.24
9.35
8.00
7.34
7.29
7.54
7.78
7.72
7.17
6.11
4.69
3.09
1.42
-0.27
-2.00
-3.84
-5.75
-7.69
-9.61
-11.56
-13.62
-15.82
-17.99
-19.68
-20.28
-19.24
-16.36
-11.92
-6.59
-1.36
2.91
5.76
7.31
8.07
8.74
9.76
11.12
12.35
12.93
12.57
11.43
9.95
8.58
7.52
6.60
5.62
4.46
3.29
2.35
1.76
1.42
0.95
0.11
-1.17
-2.63
-3.97
-5.08
-6.12
-7.43
-9.23
-11.53
-14.05
-16.36
-18.06
-18.83
-18.51
-17.02
-14.38
-10.70
-6.29
-1.56
2.95
6.81
9.75
11.64
12.57
12.67
12.19
11.44
10.82
10.66
11.08
11.93
12.77
13.11
12.50
10.86
8.42
5.65
3.09
1.17
0.12
-0.10
0.24
0.73
0.91
0.47
-0.77
-2.77
-5.30
-8.09
-10.93
-13.61
-15.96
-17.76
-18.71
-18.60
-17.30
-14.77
-11.16
-6.74
-1.96
2.63
6.49
9.32
11.03
11.75
11.71
11.17
10.28
9.17
7.97
6.74
5.52
4.28
2.99
1.75
0.65
-0.14
-0.54
-0.67
-0.72
-0.88
-1.27
-1.88
-2.76
-4.07
-6.01
-8.67
-11.98
-15.59
-19.02
-21.74
-23.31
-23.47
-22.15
-19.33
-15.16
-10.02
-4.50
0.75
5.15
8.47
10.89
12.71
14.25
15.52
16.28
16.21
15.13
13.19
10.92
8.93
7.69
7.32
7.51
7.75
7.54
6.62
4.98
2.93
0.82
-1.03
-2.50
-3.63
-4.53
-5.30
-6.08
-7.09
-8.56
-10.69
-13.45
-16.45
-19.02
-20.39
-20.06
-17.93
-14.32
-9.78
-4.80
0.22
5.06
9.39
12.88
15.19
16.21
16.16
15.50
14.86
14.64
14.80
14.93
14.48
13.08
10.78
8.04
5.44
3.46
2.33
1.93
1.94
1.99
1.77
1.16
0.15
-1.25
-2.99
-5.17
-7.84
-11.08
-14.79
-18.55
-21.74
-23.65
-23.76
-21.94
-18.47
-13.86
-8.64
-3.36
1.56
5.75
8.94
11.13
12.55
13.54
14.35
15.04
15.40
15.15
14.23
12.81
11.29
10.13
9.49
9.26
9.14
8.76
7.87
6.36
4.28
1.85
-0.62
-2.77
-4.32
-5.22
-5.77
-6.37
-7.45
-9.28
-11.77
-14.66
-17.52
-19.88
-21.33
-21.45
-19.94
-16.70
-11.90
-6.02
0.16
5.77
10.03
12.50
13.10
12.27
10.80
9.48
8.92
9.29
10.34
11.49
12.13
11.89
10.80
9.19
7.57
6.38
5.70
5.35
5.01
4.31
3.06
1.26
-0.90
-3.19
-5.44
-7.46
-9.18
-10.49
-11.38
-11.89
-12.38
-13.28
-14.93
-17.29
-19.87
-21.81
-22.27
-20.77
-17.37
-12.55
-6.93
-1.04
4.70
9.91
14.19
17.16
18.66
18.83
18.14
17.08
15.97
14.91
13.80
12.65
11.66
11.05
10.90
11.04
11.04
10.53
9.38
7.88
6.35
4.97
3.54
1.65
-1.00
-4.35
-7.76
-10.42
-11.71
-11.64
-10.79
-10.12
-10.34
-11.70
-13.91
-16.34
-18.34
-19.42
-19.32
-17.88
-15.05
-10.89
-5.63
0.32
6.38
11.85
16.13
18.72
19.42
18.35
15.95
12.98
10.23
8.36
7.63
7.94
8.93
10.14
11.16
11.65
11.42
10.41
8.70
6.51
4.16
1.96
0.10
-1.42
-2.78
-4.19
-5.86
-7.77
-9.87
-12.10
-14.44
-16.96
-19.62
-22.21
-24.24
-25.14
-24.40
-21.89
-17.86
-12.89
-7.63
-2.56
2.08
6.32
10.22
13.80
16.81
18.84
19.55
18.86
17.19
15.35
14.20
14.20
15.05
15.85
15.63
13.88
10.82
7.32
4.37
2.50
1.59
1.05
0.19
-1.41
-3.74
-6.62
-9.73
-12.78
-15.56
-17.82
-19.40
-20.24
-20.49
-20.49
-20.56
-20.77
-20.88
-20.35
-18.52
-14.96
-9.65
-3.14
3.59
9.47
13.70
16.05
16.92
17.07
17.20
17.73
18.60
19.46
19.84
19.46
18.29
16.54
14.58
12.69
11.06
9.67
8.27
6.54
4.29
1.64
-0.96
-2.93
-3.97
-4.27
-4.56
-5.69
-8.19
-11.89
-16.03
-19.61
-21.89
-22.64
-22.18
-21.05
-19.70
-18.33
-16.80
-14.79
-12.03
-8.38
-3.99
0.72
5.27
9.25
12.49
14.99
16.80
17.95
18.28
17.78
16.57
15.11
13.99
