1723720535.00
64.000000
-0.00
-0.00
-0.00
-0.00
-0.00
-0.00
-0.00
-0.00
-0.00
-0.00
0.00
0.01
0.01
-0.00
-0.03
-0.05
-0.05
0.00
0.13
0.36
0.66
1.01
1.37
1.72
2.06
2.40
2.79
3.24
3.80
4.42
5.06
5.66
6.20
6.68
7.15
7.68
8.31
9.14
10.09
11.04
11.88
12.56
13.14
13.76
14.65
15.96
17.91
20.32
22.90
25.38
27.58
29.57
31.68
34.32
37.81
42.54
48.15
54.10
59.83
64.97
69.58
74.14
79.34
85.71
93.76
103.00
112.62
121.73
129.77
136.75
143.30
150.75
157.77
166.64
177.95
191.79
206.97
220.57
228.25
225.36
208.53
176.87
132.76
80.05
23.07
-34.94
-92.44
-149.16
-205.23
-260.37
-313.74
-363.87
-409.83
-450.91
-486.50
-515.74
-537.23
-549.22
-549.96
-538.37
-514.21
-478.67
-433.88
-382.45
-327.02
-269.84
-212.63
-156.66
-102.95
-52.37
-5.90
35.58
71.43
101.35
125.50
144.38
158.69
169.15
176.37
180.75
182.57
182.07
179.51
175.23
169.65
163.18
156.15
148.81
141.30
133.69
126.02
118.33
110.69
103.16
95.80
88.68
81.83
75.25
68.95
62.95
57.25
51.86
46.78
42.03
37.59
33.45
29.61
26.07
22.81
19.83
17.11
14.67
12.48
10.54
8.83
7.35
6.07
4.97
4.05
3.27
2.62
2.09
1.65
1.30
1.01
0.79
0.61
0.48
0.37
0.29
0.24
0.20
0.18
0.17
0.18
0.19
0.21
0.24
0.27
0.31
0.35
0.40
0.44
0.49
0.54
0.59
0.64
0.69
0.75
0.82
0.89
0.96
1.05
1.14
1.24
1.36
1.49
1.63
1.79
1.98
2.18
2.40
2.65
2.92
3.23
3.56
3.92
4.32
4.76
5.22
5.73
6.27
6.86
7.49
8.16
8.87
9.63
10.44
11.29
12.19
13.14
14.13
15.19
16.30
17.49
18.73
20.04
21.35
22.60
23.68
24.47
24.83
24.67
23.91
22.47
20.36
17.57
14.16
10.15
5.67
0.92
-3.90
-8.54
-12.76
-16.36
-19.24
-21.37
-22.80
-23.66
-24.05
-24.05
-23.68
-22.96
-21.88
-20.55
-19.12
-17.82
-16.87
-16.35
-16.20
-16.22
-16.11
-15.64
-14.81
-13.82
-13.04
-12.88
-13.51
-14.80
-16.36
-17.68
-18.32
-18.20
-17.67
-17.34
-17.89
-19.65
-22.52
-25.94
-29.26
-31.82
-33.39
-34.17
-34.74
-35.84
-38.32
-42.99
-50.33
-59.85
-69.58
-76.30
-76.43
-67.30
-48.65
-22.82
5.73
32.02
52.26
64.75
69.91
69.43
65.42
58.98
51.68
45.10
40.49
38.48
38.76
40.14
41.06
40.30
37.26
32.46
26.90
21.74
17.96
16.06
16.08
17.54
19.50
20.76
20.40
17.86
13.22
7.25
1.05
-4.39
-8.57
-11.66
-14.28
-17.05
-20.44
-24.58
-29.14
-33.60
-37.35
-39.83
-40.75
-39.91
-37.29
-32.89
-26.76
-19.08
-10.21
-0.73
8.38
16.14
21.79
25.06
26.37
26.55
26.41
26.36
26.39
26.18
25.55
24.64
23.83
23.43
23.42
23.32
22.51
20.62
17.78
14.63
11.86
9.80
8.23
6.54
4.09
0.70
-3.35
-7.44
-11.00
-13.90
-16.42
-19.04
-22.18
-25.82
-29.54
-32.78
-34.99
-35.78
-34.82
-31.79
-26.33
-18.36
-8.31
2.72
13.30
21.98
27.75
30.34
30.06
27.64
23.93
19.88
16.29
13.87
12.96
13.46
14.85
16.43
17.63
18.24
18.27
17.79
16.72
14.83
11.92
8.10
3.78
-0.45
-4.13
-7.16
-9.82
-12.61
-15.97
-20.13
-25.08
-30.67
-36.48
-41.90
-46.00
-47.76
-46.31
-41.25
-32.98
-22.48
-11.12
-0.15
9.48
17.26
23.02
26.82
28.93
29.84
30.08
30.05
29.84
29.09
27.38
24.44
20.58
16.58
13.36
11.57
11.30
12.04
13.02
13.58
13.42
12.72
12.04
11.97
12.92
14.91
17.45
19.73
20.96
20.64
18.94
16.49
14.11
12.50
12.12
13.28
16.37
21.81
29.74
39.57
49.84
58.63
64.26
65.88
63.80
59.01
52.40
44.28
34.32
22.06
7.60
-8.13
-23.76
-37.88
-49.77
-59.36
-67.00
-73.00
-77.39
-80.01
-80.87
-80.32
-78.84
-77.09
-75.27
-73.27
-70.88
-67.98
-64.78
-61.76
-59.32
-57.60
-56.49
-55.71
-54.88
-53.67
-51.59
-48.06
-42.52
-34.67
-24.82
-13.99
-3.54
5.24
11.65
15.74
18.09
19.46
20.34
20.98
21.47
21.97
22.69
23.80
25.29
26.83
28.07
28.71
28.75
28.35
27.65
26.59
24.93
22.40
18.97
14.84
10.40
6.10
2.25
-0.99
-3.58
-5.62
-7.37
-9.27
-11.78
-15.27
-19.74
-24.81
-29.64
-33.32
-35.04
-34.21
-30.66
-24.57
-16.57
-7.63
1.10
8.58
14.21
17.87
19.90
20.84
21.08
20.87
20.29
19.48
18.76
18.61
19.37
21.11
23.45
25.75
27.42
28.05
27.66
26.50
24.94
23.34
21.81
20.25
18.38
15.95
12.83
9.20
5.43
1.90
-1.21
-3.96
-6.64
-9.62
-13.14
-17.34
-22.20
-27.50
-32.88
-37.62
-40.82
-41.53
-39.06
-33.28
-24.80
-14.72
-4.44
4.84
12.37
17.88
21.53
23.64
24.56
24.58
23.91
22.82
21.75
21.23
21.65
23.04
24.82
26.03
25.76
23.65
20.17
16.46
13.68
12.44
12.46
12.65
11.76
8.95
4.19
-1.83
-8.09
-13.70
-18.42
-22.44
-26.41
-30.92
-36.30
-42.51
-49.29
-56.40
-63.71
-71.09
-78.11
-83.89
-87.13
-86.78
-82.69
-75.90
-68.55
-63.00
-60.92
-62.75
-67.66
-74.20
-81.09
-87.57
-93.48
-98.80
-103.44
-107.03
-109.01
-108.49
-104.24
-94.47
-77.22
-51.11
-16.27
25.05
68.37
107.89
137.74
153.16
151.54
132.69
98.91
54.92
7.21
-37.18
-72.35
-95.17
-106.00
-108.09
-105.80
-102.41
-99.07
-94.83
-87.75
-76.35
-60.41
-40.60
-17.82
7.19
33.53
59.51
82.40
99.09
107.51
107.89
102.94
96.83
93.42
94.66
100.25
108.34
116.94
124.86
131.92
138.27
143.62
147.02
147.11
142.92
134.52
122.87
109.25
94.77
79.75
63.78
46.35
27.46
7.95
-10.54
-26.13
-37.42
-43.92
-46.22
-45.69
-43.85
-42.06
-41.11
-41.25
-42.38
-44.12
-45.96
-47.33
-47.59
-46.06
-42.31
-36.36
-28.80
-20.78
-13.50
-7.89
-4.33
-2.53
-1.78
-1.33
-0.49
1.17
3.77
7.28
11.46
15.95
20.35
24.17
27.02
28.78
29.58
29.84
30.14
30.94
32.43
34.41
36.33
37.61
37.86
37.08
35.56
33.78
32.15
30.95
30.25
30.12
30.57
31.46
32.49
33.01
32.27
29.70
25.46
20.48
16.48
15.31
18.09
24.73
33.79
43.08
50.57
55.21
57.12
57.33
56.82
56.06
54.81
52.48
48.78
44.17
39.66
36.32
34.71
34.51
34.69
34.05
31.74
27.72
22.68
17.49
12.88
9.12
5.99
3.07
0.06
-3.18
-6.52
-9.72
-12.54
-14.77
-16.32
-17.24
-17.81
-18.53
-20.05
-22.88
-27.25
-32.81
-38.74
-44.13
-48.12
-50.02
-49.46
-46.26
-40.66
-33.47
-26.07
-20.03
-16.73
-16.58
-18.92
-22.48
-25.90
-28.55
-30.70
-33.29
-37.26
-42.82
-49.03
-54.08
-55.87
-52.79
-44.43
-31.77
-17.06
-3.03
8.03
15.13
18.86
21.11
24.06
28.82
34.83
39.96
41.38
36.93
25.98
9.70
-9.53
-28.63
-44.54
-54.45
-56.64
-51.23
-40.84
-30.36
-25.28
-29.27
-42.25
-59.92
-75.53
-82.79
-78.62
-64.09
-43.44
-21.84
-3.39
9.96
18.15
22.17
23.08
21.75
18.85
15.12
11.55
9.27
9.32
12.14
17.25
23.22
28.20
30.55
29.62
26.08
21.50
17.71
15.87
16.01
17.12
17.74
16.74
13.77
9.37
4.58
0.43
-2.51
-4.26
-5.37
-6.51
-8.27
-10.92
-14.49
-18.81
-23.69
-28.92
-34.07
-38.53
-41.46
-41.99
-39.47
-33.76
-25.34
-15.25
-4.83
4.67
12.46
18.26
22.26
24.86
26.45
27.35
27.73
27.74
27.53
27.30
27.25
27.51
28.14
29.16
30.56
32.26
34.10
35.86
37.31
38.25
38.55
38.03
36.43
33.40
28.71
22.52
15.40
8.34
2.28
-2.27
-5.41
-7.74
-9.93
-12.33
-14.80
-17.02
-18.78
-20.44
-22.88
-26.90
-32.74
-39.59
-45.84
-49.60
-49.51
-45.24
-37.54
-27.78
-17.34
-7.38
1.40
8.57
13.87
17.20
18.70
18.79
18.07
17.26
16.87
17.19
18.19
19.63
21.08
22.16
22.63
22.60
22.42
22.49
23.11
24.06
24.74
24.42
22.62
19.51
15.71
12.06
9.22
7.37
6.17
5.08
3.71
1.96
0.04
-1.73
-3.15
-4.34
-5.69
-7.73
-10.86
-15.15
-20.23
-25.34
-29.58
-32.07
-32.30
-30.12
-25.77
-19.69
-12.48
-4.77
2.85
9.68
15.20
19.00
21.02
21.56
21.07
20.03
18.80
17.56
16.47
15.77
15.77
16.80
18.97
21.90
24.87
26.94
27.32
25.75
22.63
18.72
14.99
12.15
10.43
9.61
9.19
8.57
7.28
5.15
2.21
-1.27
-4.90
-8.27
-10.98
-12.96
-14.41
-15.81
-17.78
-20.74
-24.74
-29.37
-33.80
-36.98
-37.96
-36.08
-31.20
-23.76
-14.78
-5.65
2.08
7.15
8.88
7.34
3.39
-1.72
-6.73
-10.77
-13.68
-15.99
-18.56
-22.31
-27.58
-34.03
-40.66
-46.07
-48.94
-48.49
-44.62
-38.05
-30.14
-22.47
-16.44
-12.82
-11.60
-12.06
-13.28
-14.57
-15.85
-17.61
-20.47
-24.85
-30.56
-36.90
-42.98
-47.93
-51.02
-51.76
-49.82
-45.37
-39.31
-33.23
-28.94
-27.83
-30.11
-34.85
-40.64
-46.45
-52.22
-58.84
-67.28
-77.69
-88.98
-99.23
-106.70
-110.72
-112.05
-112.26
-112.78
-113.84
-113.88
-110.17
-99.62
-80.32
-52.46
-18.56
17.56
52.10
82.64
108.42
129.85
147.68
162.59
175.42
187.73
201.72
219.16
239.83
260.49
275.60
279.79
270.57
249.83
222.99
196.28
173.78
156.14
141.34
126.81
111.42
96.10
82.69
72.50
64.88
57.60
48.13
35.18
19.40
3.08
-11.18
-21.81
-28.99
-34.48
-40.63
-49.23
-60.67
-73.89
-86.99
-98.19
-106.59
-112.37
-116.50
-119.94
-123.10
-125.59
-126.52
-125.14
-121.49
-116.50
-111.65
-108.31
-107.12
-107.64
-108.64
-108.60
-106.28
-101.16
-93.49
-84.01
-73.62
-63.12
-53.06
-43.83
-35.72
-29.01
-23.92
-20.56
-18.86
-18.42
-18.64
-18.89
-18.68
-17.78
-16.37
-14.82
-13.56
-12.89
-12.66
-12.35
-11.20
-8.55
-4.23
1.36
7.39
13.08
17.98
22.10
25.69
28.95
31.80
33.77
34.41
33.41
30.85
27.17
22.95
18.69
14.76
11.43
8.92
7.40
7.03
7.82
9.69
12.35
15.30
18.04
20.09
21.27
21.75
21.84
21.81
21.64
21.03
19.62
17.37
14.51
11.47
8.54
5.63
2.46
-1.15
-5.10
-8.92
-12.16
-14.72
-16.98
-19.61
-23.07
-27.44
-32.30
-37.00
-40.94
-43.75
-45.29
-45.57
-44.78
-43.23
-41.29
-39.29
-37.27
-35.04
-32.35
-29.10
-25.53
-22.08
-19.05
-16.16
-12.54
-6.86
2.08
14.88
31.37
50.53
70.94
91.04
109.33
124.68
136.46
144.55
149.34
151.35
151.05
148.76
144.83
139.82
134.56
129.91
126.24
123.21
119.75
114.70
107.48
98.39
88.34
78.28
68.55
58.78
48.24
36.44
23.64
10.73
-1.25
-11.61
-20.33
-28.04
-35.38
-42.65
-49.58
-55.43
-59.60
-62.09
-63.85
-66.50
-71.59
-79.80
-90.61
-102.48
-113.36
-121.53
-125.89
-126.15
-122.71
-116.09
-106.71
-94.80
-80.32
-62.78
-41.53
-15.72
15.15
50.68
89.61
129.50
166.73
197.03
216.59
223.07
216.38
198.32
171.23
138.03
101.30
63.21
25.94
-7.64
-34.05
-49.76
-52.77
-44.25
-27.64
-8.48
6.34
9.77
-3.25
-34.31
-80.47
-135.08
-190.14
-236.56
-266.76
-276.94
-268.03
-244.36
-212.67
-180.15
-146.37
-114.59
-87.78
-65.73
-45.16
-22.63
3.86
32.85
64.77
99.14
133.65
165.67
192.87
213.15
220.61
213.31
193.09
165.24
136.12
110.17
89.11
72.53
58.00
42.30
23.87
3.30
-16.62
-32.47
-42.07
-45.63
-44.55
-42.43
-45.14
-59.06
-89.36
-137.85
-201.68
-272.93
-340.27
-389.57
-408.89
-392.88
-344.64
-274.46
-196.19
-122.90
-56.17
-1.79
38.30
67.82
91.89
111.56
125.02
130.43
128.50
122.87
117.36
116.32
119.49
124.83
128.22
125.54
114.34
95.20
71.74
49.00
33.54
30.50
41.30
62.67
88.27
110.82
124.45
125.93
114.26
90.97
58.51
19.48
-23.45
-66.68
-105.55
-135.35
-153.13
-159.17
-156.71
-151.03
-146.97
-147.12
-150.72
-154.16
-152.98
-144.19
-127.74
-106.28
-84.16
-65.62
-53.56
-48.75
-50.04
-55.09
-61.25
-65.71
-65.60
-58.08
-40.86
-13.55
21.31
58.23
90.09
110.71
117.27
111.39
98.17
83.76
72.45
65.49
61.38
57.69
53.06
47.88
43.77
42.36
44.12
48.10
52.61
56.23
58.74
61.11
65.02
71.79
81.42
92.36
102.01
107.90
108.86
105.66
100.70
96.94
96.66
100.41
106.84
113.14
116.15
113.28
103.13
85.86
62.99
37.10
11.20
-11.78
-29.60
-41.30
-47.31
-49.26
-49.44
-49.89
-51.83
-55.36
-59.38
-62.44
-63.33
-61.56
-57.59
-52.46
-47.22
-42.28
-37.15
-30.57
-21.22
-8.56
6.81
23.04
38.00
49.94
58.21
63.23
65.93
67.00
66.65
64.75
61.20
56.50
51.56
47.30
44.16
41.76
39.13
35.22
29.50
22.15
14.15
6.67
0.63
-3.75
-7.12
-10.59
-15.23
-21.45
-28.68
-35.59
-40.67
-42.98
-42.61
-40.78
-39.22
-39.52
-42.48
-47.87
-54.71
-61.54
-66.96
-69.78
-69.23
-64.93
-57.06
-46.40
-34.13
-21.72
-10.41
-0.86
6.77
12.81
17.87
22.51
27.15
32.02
36.84
41.14
44.18
45.23
43.92
40.34
34.97
28.35
20.93
12.92
4.54
-3.74
-11.12
-16.76
-20.28
-21.99
-23.03
-24.76
-28.17
-33.20
-38.77
-43.14
-44.53
-41.91
-35.40
-26.10
-15.70
-5.91
2.13
7.88
11.41
13.09
13.37
12.82
12.25
12.73
15.45
21.23
29.99
40.34
49.93
56.25
57.67
53.96
46.17
35.89
24.42
12.74
1.71
-7.28
-12.23
-11.28
-3.63
9.62
25.71
41.41
54.26
63.37
69.23
72.84
74.98
75.92
75.92
75.43
75.03
75.12
75.38
74.88
72.62
68.20
62.40
56.71
52.72
51.16
51.34
51.49
49.32
42.76
30.67
13.18
-8.55
-32.85
-58.12
-83.47
-108.70
-133.82
-158.58
-181.99
-202.31
-217.80
-227.21
-230.34
-228.17
-222.10
-213.74
-204.32
-194.91
-186.49
-179.93
-175.40
-172.04
-168.16
-162.17
-154.07
-145.82
-140.76
-142.02
-150.47
-164.03
-178.55
-189.73
-194.95
-194.05
-188.48
-179.81
-168.43
-153.57
-134.00
-109.28
-80.26
-48.88
-17.53
11.69
37.38
58.85
76.14
89.51
99.21
105.19
107.15
104.64
97.60
86.62
72.98
58.43
44.58
32.57
22.84
15.10
8.71
3.14
-1.95
-6.63
-10.68
-13.84
-15.95
-16.97
-17.03
-16.22
-14.55
-11.74
-7.41
-1.29
6.58
15.66
25.06
33.77
40.96
46.27
49.75
51.79
53.00
53.88
54.76
55.71
56.46
56.64
55.97
54.59
53.12
52.34
52.84
54.73
57.60
60.88
64.10
67.03
69.49
71.22
71.82
71.25
70.09
69.68
71.76
77.61
87.33
99.79
113.09
125.44
135.83
144.08
150.46
155.07
157.66
157.63
154.48
148.21
139.44
129.17
118.45
107.98
98.00
88.34
78.76
69.22
59.82
50.83
42.37
34.36
26.49
18.53
10.38
2.14
-5.87
-13.36
-20.18
-26.36
-32.02
-37.38
-42.73
-48.34
-54.47
-61.20
-68.42
-75.81
-82.92
-89.23
-94.14
-96.90
-96.47
-91.96
-82.91
-69.73
-53.81
-37.19
-21.80
-8.86
1.63
10.64
19.50
29.12
39.43
49.51
58.13
64.37
68.15
70.05
70.83
70.96
70.41
68.96
66.49
63.29
59.97
57.03
54.40
51.26
46.37
38.60
27.59
14.07
-0.35
-13.83
-24.98
-33.29
-39.16
-43.53
-47.49
-51.76
-56.70
-62.37
-68.78
-75.84
-83.41
-91.24
-99.17
-107.24
-115.55
-123.89
-131.03
-134.42
-130.52
-116.06
-89.53
-52.32
-8.75
35.19
73.59
102.28
119.62
126.16
123.87
115.30
103.24
90.64
80.39
74.70
74.32
78.19
83.65
87.71
88.27
84.94
78.79
71.44
63.93
56.26
47.83
38.24
28.09
18.84
12.28
9.58
10.59
13.88
17.27
18.71
16.97
11.94
4.47
-4.23
-13.19
-22.14
-31.34
-41.14
-51.41
-61.38
-69.82
-75.73
-78.92
-80.23
-81.03
-82.41
-84.58
-86.64
-87.21
-85.14
-80.17
-73.05
-65.26
-58.31
-53.07
-49.37
-45.94
-40.85
-32.29
-19.29
-2.38
16.56
34.86
50.03
60.63
66.63
68.93
68.71
66.85
63.65
59.07
53.17
46.28
39.01
32.03
25.82
20.71
16.95
14.65
13.76
13.99
14.91
16.09
17.39
19.10
21.63
25.17
29.38
33.40
36.45
38.42
40.26
43.53
49.52
58.07
67.35
74.63
77.54
75.13
67.86
56.65
41.93
23.29
0.50
-25.12
-49.88
-68.52
-76.44
-72.06
-57.68
-38.27
-18.63
-0.90
16.09
35.10
57.47
81.13
100.63
109.81
105.22
88.24
64.60
41.42
23.82
12.82
5.91
-0.85
-10.30
-22.95
-37.56
-52.38
-66.53
-80.31
-94.30
-108.49
-121.50
-130.83
-133.78
-128.41
-114.43
-93.52
-68.95
-44.77
-24.73
-11.23
-4.74
-3.85
-5.91
-7.91
-7.36
-2.76
6.13
18.33
31.70
43.26
49.98
49.90
43.01
31.38
18.50
7.83
1.29
-0.93
0.02
2.81
6.65
11.14
15.62
18.69
18.29
12.64
1.24
-14.77
-33.00
-50.64
-65.37
-75.83
-81.61
-83.40
-82.35
-79.49
-75.02
-67.87
-56.29
-39.17
-17.41
5.47
23.95
32.72
28.79
12.81
-11.02
-36.51
-57.51
-69.49
-70.52
-61.36
-44.91
-25.18
-6.54
7.35
14.12
13.38
7.12
-0.75
-5.33
-2.39
9.85
29.87
53.40
75.02
90.27
97.11
95.91
88.36
76.24
60.63
42.10
21.58
0.65
-18.56
-34.21
-45.41
-52.31
-55.74
-56.58
-55.52
-52.91
-49.06
-44.46
-39.76
-35.62
-32.21
-29.12
-25.18
-18.84
-8.81
5.29
22.67
41.66
60.25
76.91
90.89
102.31
111.71
119.70
126.83
133.65
140.72
148.47
156.86
165.02
171.34
173.81
170.94
162.24
148.39
131.15
112.43
93.60
75.05
56.33
36.85
16.68
-2.92
-19.69
-31.34
-36.79
-36.84
-34.18
-32.45
-34.84
-42.83
-55.69
-70.63
-83.87
-91.93
-92.87
-87.02
-76.89
-66.26
-58.73
-56.48
-59.60
-66.51
-74.93
-82.92
-89.50
-94.72
-98.97
-102.53
-105.42
-107.42
-108.56
-109.14
-109.65
-110.50
-111.76
-113.13
-114.28
-115.08
-115.83
-117.06
-119.09
-121.51
-122.92
-120.89
-112.76
-96.50
-71.95
-41.40
-9.27
19.04
39.16
49.47
51.77
50.19
49.31
51.92
58.03
65.20
70.03
69.76
63.38
51.58
36.16
19.19
2.41
-13.02
-26.44
-37.34
-45.27
-49.58
-49.76
-45.74
-38.35
-29.48
-21.50
-16.36
-14.75
-15.70
-17.24
-17.45
-15.46
-11.67
-7.35
-3.62
-0.97
0.79
2.15
3.16
3.32
1.71
-2.57
-9.79
-19.29
-29.50
-38.25
-43.37
-43.54
-38.79
-30.70
-21.96
-15.41
-13.11
-15.39
-20.66
-25.98
-28.11
-24.59
-14.71
0.24
17.47
33.59
45.74
52.22
52.68
47.98
39.70
29.62
19.33
10.18
3.09
-1.10
-1.67
1.61
8.21
16.30
22.96
25.05
20.35
8.61
-8.33
-27.56
-46.51
-63.83
-79.57
-93.94
-106.12
-114.05
-115.27
-108.61
-95.34
-78.99
-63.71
-52.51
-46.10
-42.89
-40.48
-36.94
-31.71
-25.60
-19.94
-15.60
-12.52
-9.60
-5.25
1.88
12.54
26.49
42.89
60.71
79.02
97.21
114.67
130.45
143.07
150.85
152.62
148.48
139.97
129.40
118.77
108.68
98.17
85.40
69.05
49.42
28.57
9.68
-4.40
-12.25
-14.22
-11.83
-6.78
-0.19
7.57
16.34
25.62
34.31
40.99
44.39
44.16
40.92
36.11
31.37
27.94
26.35
26.34
27.19
28.10
28.56
28.31
27.29
25.25
21.62
15.58
6.51
-5.51
-19.34
-33.03
-44.57
-52.77
-57.71
-60.71
-63.61
-67.92
-74.33
-82.42
-91.12
-99.04
-104.67
-106.75
-104.57
-98.22
-88.91
-78.81
-70.14
-64.54
-62.30
-62.51
-63.84
-65.45
-67.30
-69.92
-73.59
-77.56
-80.21
-79.71
-74.89
-65.87
-53.91
-40.76
-28.08
-17.36
-10.01
-7.42
-10.68
-19.83
-33.31
-47.94
-59.73
-65.09
-61.87
-49.93
-30.86
-7.38
17.35
40.34
59.18
72.37
79.44
81.00
78.49
73.89
69.52
67.51
69.17
74.58
82.21
89.44
93.84
94.51
92.83
91.75
94.39
102.21
114.19
127.43
138.50
145.02
146.28
143.00
136.42
127.54
117.04
105.44
93.55
83.00
76.37
76.72
86.29
105.15
129.93
153.91
168.50
166.00
142.24
98.04
38.86
-27.27
-92.31
-150.40
-198.27
-234.31
-257.31
-266.04
-259.76
-239.85
-210.61
-178.53
-150.25
-129.67
-116.35
-106.15
-93.71
-75.71
-52.81
-29.02
-9.42
2.46
6.47
5.17
2.05
-0.36
-1.45
-2.26
-4.25
-7.94
-12.54
-16.25
-17.47
-15.92
-12.79
-9.76
-7.88
-6.46
-3.10
5.19
20.68
43.94
73.88
108.18
143.48
175.56
199.35
209.48
201.74
174.91
131.80
79.15
25.92
-19.35
-50.93
-67.18
-70.55
-66.39
-61.01
-59.80
-65.68
-78.51
-95.51
-112.43
-124.96
-129.79
-125.26
-110.96
-87.69
-57.45
-23.57
9.38
36.41
53.57
59.44
55.87
47.19
38.49
33.38
32.70
34.67
36.31
35.31
31.39
26.46
23.68
25.86
34.04
46.96
61.40
73.44
80.06
80.31
75.57
68.88
63.37
60.90
61.32
62.99
63.78
62.09
57.42
50.19
41.33
31.87
22.87
15.16
9.40
5.86
4.52
4.96
6.67
9.24
12.46
16.40
21.30
27.31
34.37
42.25
50.35
57.88
63.81
66.95
66.48
62.09
54.23
44.06
32.97
22.21
12.58
4.36
-2.43
-7.78
-11.53
-13.42
-13.64
-13.05
-12.91
-14.21
-16.94
-19.90
-21.14
-19.13
-13.60
-5.75
2.47
9.30
13.94
16.66
18.19
19.15
19.55
19.21
18.13
16.80
16.03
16.29
17.04
16.86
13.99
7.40
-2.49
-13.94
-24.61
-32.85
-38.38
-42.16
-45.69
-49.86
-54.39
-58.08
-59.57
-58.33
-55.11
-51.59
-49.69
-50.78
-55.28
-62.89
-73.05
-85.24
-98.98
-113.60
-128.02
-140.79
-150.68
-157.27
-161.41
-165.16
-170.92
-180.25
-192.98
-206.96
-218.75
-224.88
-223.09
-213.05
-196.19
-174.90
-151.64
-128.19
-105.38
-83.46
-62.21
-41.49
-21.31
-1.83
16.75
34.32
51.01
67.02
82.33
96.41
108.04
115.63
117.92
114.62
106.82
96.69
86.56
77.99
71.36
65.99
60.99
55.93
51.13
47.30
44.99
43.86
42.82
40.51
35.99
29.30
21.49
14.00
8.20
4.87
4.28
6.48
11.34
18.51
27.26
36.37
44.45
50.35
53.58
54.52
54.20
53.82
54.36
56.24
59.19
62.43
65.04
66.32
66.09
64.65
62.57
60.21
57.61
54.42
50.27
45.16
39.58
34.32
29.87
26.20
22.83
19.19
15.17
11.28
8.32
6.96
7.35
8.88
10.69
11.87
11.92
10.88
9.31
8.00
7.75
9.04
11.78
15.39
18.91
21.31
22.01
20.86
18.37
15.24
12.09
9.19
6.61
4.24
2.08
0.10
-1.90
-4.23
-7.04
-10.23
-13.01
-14.23
-12.94
-8.88
-2.76
3.90
9.48
12.90
13.92
13.12
11.40
9.61
8.23
7.44
7.08
6.88
6.27
4.55
1.08
-4.42
-11.59
-19.52
-26.97
-32.88
-36.74
-38.58
-38.82
-37.92
-36.35
-34.36
-32.18
-30.10
-28.46
-27.71
-28.23
-30.18
-33.48
-37.66
-41.89
-45.14
-46.26
-44.37
-39.17
-31.05
-21.17
-11.10
-2.41
3.89
7.58
9.43
10.65
12.41
15.10
17.86
18.70
15.27
5.91
-9.20
-27.75
-45.92
-59.80
-66.82
-66.64
-60.95
-52.16
-42.27
-32.08
-21.22
-9.27
3.56
16.14
26.73
34.01
37.78
39.01
39.29
39.83
40.73
41.16
39.94
36.73
32.86
30.74
32.46
38.22
45.73
51.15
51.13
44.87
34.72
25.12
19.98
20.49
24.50
27.96
27.25
21.44
12.49
3.77
-1.96
-4.33
-5.20
-7.02
-11.16
-16.79
-21.34
-22.30
-18.78
-12.41
-6.34
-3.26
-3.90
-6.77
-9.20
-9.35
-7.60
-6.43
-8.89
-16.70
-29.06
-43.06
-55.23
-63.58
-68.44
-72.11
-77.25
-85.01
-94.11
-101.02
-101.39
-92.11
-72.74
-45.78
-16.17
10.34
28.76
36.36
33.55
23.90
13.24
7.38
9.91
20.48
35.05
47.86
54.42
53.73
48.45
43.15
41.54
44.59
50.39
55.94
59.43
61.26
63.48
67.82
74.16
80.07
81.74
75.81
61.04
39.04
13.67
-10.04
-27.94
-38.01
-40.91
-39.31
-36.37
-34.30
-33.54
-33.11
-31.58
-28.31
-23.92
-20.00
-18.27
-19.64
-23.84
-29.65
-35.57
-40.27
-43.10
-43.81
-42.48
-39.26
-34.34
-28.11
-21.14
-13.96
-6.94
-0.03
7.25
15.53
25.16
35.95
46.86
56.46
63.43
67.10
67.95
67.56
68.11
71.78
79.82
92.01
106.45
120.19
130.11
134.08
131.51
123.24
110.91
96.22
80.46
64.66
49.80
36.98
27.18
20.71
17.00
14.71
12.37
9.06
4.86
0.58
-2.74
-4.49
-4.93
-4.96
-5.79
-8.23
-12.35
-17.45
-22.37
-25.97
-27.62
-27.23
-25.13
-21.82
-17.57
-12.63
-7.32
-2.19
2.02
4.66
5.48
4.82
3.52
2.56
2.60
3.73
5.53
7.31
8.49
8.82
8.42
7.57
6.50
5.16
3.23
0.33
-3.90
-9.49
-16.09
-23.05
-29.53
-34.70
-37.99
-39.33
-39.16
-38.43
-38.08
-38.74
-40.49
-42.83
-45.03
-46.51
-46.91
-46.24
-44.36
-41.00
-35.67
-28.03
-18.31
-7.46
3.11
12.01
18.36
22.07
23.71
24.06
23.80
23.33
22.89
22.91
24.05
26.97
31.90
38.23
44.59
49.45
51.76
51.45
49.45
47.03
45.24
44.48
44.57
45.06
45.61
45.89
45.71
44.66
42.36
38.76
34.16
29.07
23.93
18.69
12.93
6.30
-1.05
-8.26
-13.93
-16.92
-16.86
-14.41
-10.94
-8.01
-6.85
-8.18
-12.10
-18.17
-25.81
-34.28
-42.84
-50.91
-58.00
-63.84
-68.44
-71.96
-74.66
-76.68
-77.83
-77.66
-75.68
-71.58
-65.60
-58.38
-50.76
-43.43
-36.85
-31.15
-26.48
-22.93
-20.55
-19.25
-18.72
-18.63
-18.80
-19.42
-20.80
-23.28
-26.84
-30.94
-34.86
-37.81
-39.35
-39.50
-38.52
-36.80
-34.62
-31.95
-28.63
-24.39
-19.11
-13.01
-6.60
-0.48
4.87
9.15
12.21
13.87
14.08
13.00
11.22
9.74
9.55
11.15
14.21
17.70
20.47
21.79
21.64
20.51
19.06
17.58
15.99
14.06
11.74
9.30
7.20
5.74
4.94
4.54
4.16
3.62
2.87
1.91
0.73
-0.78
-2.69
-4.95
-7.29
-9.35
-10.72
-11.20
-10.70
-9.28
-7.10
-4.29
-0.98
2.66
6.41
10.00
13.12
15.56
17.39
18.78
19.96
20.99
21.74
21.93
21.44
20.34
18.95
17.66
16.51
15.29
13.62
11.32
8.64
6.23
4.74
4.38
4.73
4.88
4.08
2.09
-0.67
-3.30
-5.04
-5.66
-5.59
-5.71
-6.84
-9.39
-13.24
-17.71
-21.92
-25.08
-26.78
-26.99
-25.93
-23.91
-21.07
-17.35
-12.65
-7.08
-1.14
4.27
8.22
10.15
10.17
8.86
7.12
5.49
4.01
2.28
-0.11
-3.17
-6.42
-9.08
-10.60
-10.97
-10.84
-11.05
-12.01
-13.64
-15.25
-16.12
-15.90
-14.82
-13.50
-12.61
-12.51
-13.21
-14.57
-16.29
-18.16
-19.96
-21.51
-22.82
-24.18
-25.98
-28.57
-31.91
-35.38
-38.15
-39.47
-39.08
-37.24
-34.43
-31.03
-27.19
-22.91
-18.29
-13.84
-10.18
-7.72
-6.39
-5.57
-4.41
-2.39
0.49
3.70
6.51
8.46
9.62
10.44
11.53
13.17
15.13
16.82
17.51
16.81
14.83
11.99
8.95
6.19
4.01
2.58
2.00
2.36
3.67
5.70
7.85
9.31
9.35
7.66
4.52
0.66
-3.03
-6.03
-8.26
-9.99
-11.51
-12.96
-14.14
-14.73
-14.43
-13.11
-10.79
-7.60
-3.63
0.97
5.89
10.66
14.57
16.90
17.28
15.85
13.45
11.28
10.47
11.62
14.54
18.35
21.84
24.07
24.55
23.44
21.32
18.92
16.88
15.55
14.86
14.36
13.50
11.63
8.54
4.53
0.27
-3.40
-5.94
-7.37
-8.27
-9.50
-11.78
-15.36
-19.91
-24.69
-28.70
-31.20
-31.72
-30.26
-27.13
-22.76
-17.53
-11.83
-6.00
-0.49
4.15
7.54
9.61
10.70
11.39
12.29
13.69
15.51
17.32
18.59
19.04
18.73
18.04
17.42
17.12
17.16
17.33
17.24
16.58
15.23
13.29
10.97
8.50
5.96
3.43
1.00
-1.16
-2.71
-3.30
-2.73
-1.01
1.45
3.89
5.41
5.15
2.80
-1.26
-6.03
-10.22
-12.76
-13.22
-11.94
-9.66
-7.23
-5.07
-3.20
-1.52
-0.02
1.09
1.47
1.09
0.24
-0.68
-1.31
-1.62
-1.92
-2.57
-3.72
-5.27
-6.88
-8.41
-10.00
-11.95
-14.59
-17.90
-21.33
-24.16
-25.80
-26.05
-25.41
-24.70
-24.79
-26.15
-28.64
-31.63
-34.32
-36.10
-36.76
-36.44
-35.40
-34.04
-32.73
-31.84
-31.61
-32.09
-32.91
-33.42
-32.98
-31.22
-28.34
-24.96
-21.71
-18.86
-16.12
-12.84
-8.51
-3.25
2.27
7.13
10.82
13.41
15.60
18.23
21.76
26.12
30.75
34.97
38.25
40.38
41.29
41.11
39.99
38.23
36.21
34.36
32.91
31.81
30.89
29.97
29.20
28.67
28.32
27.54
25.29
20.59
13.20
3.87
-5.78
-13.96
-19.49
-22.09
-22.19
-20.52
-17.58
-13.63
-8.84
-3.71
1.07
4.79
7.07
8.12
8.51
8.95
9.88
11.39
13.27
15.37
17.67
20.24
23.06
25.82
27.90
28.57
27.30
23.92
18.83
12.91
7.38
3.34
1.51
1.85
3.46
4.89
4.63
1.72
-3.92
-11.47
-19.60
-26.98
-32.72
-36.41
-37.91
-37.36
-34.89
-30.86
-25.95
-20.95
-16.62
-13.42
-11.37
-10.23
-9.72
-9.59
-9.68
-9.76
-9.54
-8.80
-7.48
-5.82
-4.18
-2.72
-1.25
0.59
3.09
6.07
8.77
10.21
9.62
6.88
2.59
-2.19
-6.64
-10.41
-13.82
-17.72
-22.93
-29.93
-38.62
-48.27
-57.63
-65.26
-69.71
-69.99
-65.91
-58.12
-48.17
-37.89
-28.95
-22.20
-17.34
-13.18
-8.18
-0.99
9.09
21.74
35.59
48.27
56.92
59.10
53.67
41.64
25.91
10.36
-1.74
-8.91
-11.54
-11.33
-9.91
-8.20
-6.28
-4.07
-1.91
-0.72
-1.40
-4.31
-8.96
-14.30
-19.41
-23.68
-27.13
-29.86
-31.75
-32.41
-31.31
-28.13
-22.94
-16.18
-8.37
-0.11
8.10
15.89
22.82
28.50
32.44
34.19
33.44
30.28
25.36
19.78
14.82
11.46
10.10
10.26
10.85
10.53
8.29
3.73
-2.64
-9.51
-14.94
-16.72
-13.26
-3.88
10.75
28.80
47.91
65.85
81.05
92.66
100.46
104.52
105.13
102.72
97.85
91.25
83.77
76.30
69.73
64.79
61.83
60.67
60.47
59.98
58.01
53.92
47.96
41.20
35.02
30.51
28.04
27.03
26.40
25.18
22.89
19.89
17.10
15.48
15.58
17.22
19.70
22.18
24.09
25.40
26.53
27.99
30.12
32.74
35.29
36.97
37.11
35.52
32.71
29.89
28.42
29.42
33.14
38.76
44.54
48.42
48.83
45.23
38.26
29.40
20.30
12.18
5.54
0.39
-3.41
-5.86
-6.96
-7.12
-7.33
-9.14
-14.15
-23.32
-36.60
-53.18
-71.91
-91.97
-113.00
-134.93
-157.46
-179.76
-200.67
-219.07
-234.39
-246.67
-256.16
-262.89
-266.18
-264.53
-255.91
-238.30
-210.31
-171.86
-124.38
-70.90
-15.75
36.16
80.25
113.35
134.30
144.05
144.78
138.93
128.12
113.10
94.06
71.53
46.87
22.26
0.24
-17.23
-29.41
-36.79
-40.55
-42.02
-42.08
-41.15
-39.29
-36.48
-32.64
-27.19
-19.04
-6.59
11.55
35.51
63.34
91.16
114.29
128.95
133.73
130.03
120.97
109.88
99.03
89.16
80.45
73.51
69.87
71.46
79.09
91.22
103.84
111.78
110.93
100.31
82.28
61.06
40.43
22.06
5.55
-10.14
-24.80
-36.19
-40.74
-35.51
-19.98
3.30
29.41
52.88
69.35
76.61
74.77
65.86
52.99
39.61
28.72
22.28
21.06
24.80
32.60
43.23
55.07
65.99
73.30
74.25
67.04
52.22
33.23
15.65
4.85
3.33
9.03
15.80
16.07
4.33
-20.27
-53.65
-88.94
-119.75
-142.80
-158.47
-169.65
-179.58
-190.16
-201.49
-212.31
-220.89
-225.80
-226.06
-221.07
-210.30
-193.31
-170.22
-142.37
-112.52
-84.44
-61.69
-46.25
-37.70
-33.38
-29.60
-23.14
-12.42
2.28
19.26
36.42
52.14
65.49
76.17
84.34
90.18
93.99
96.09
96.81
96.58
95.95
95.17
94.22
92.62
89.56
84.44
77.05
68.00
58.57
50.17
43.95
40.29
38.85
38.74
38.96
38.69
37.68
36.27
35.07
34.68
35.44
37.19
39.53
42.07
44.49
46.53
47.94
48.07
46.52
43.24
38.90
34.67
31.78
30.69
30.88
31.15
30.18
27.42
23.15
18.15
13.19
8.50
3.92
-0.71
-5.13
-8.80
-11.11
-12.10
-12.50
-13.59
-16.40
-21.19
-27.28
-33.29
-37.88
-40.19
-39.97
-37.46
-33.02
-27.06
-19.97
-12.45
-5.36
0.46
4.62
7.38
9.53
12.05
15.53
19.97
24.65
28.59
30.96
31.39
30.14
27.79
24.99
22.13
19.29
16.30
13.15
10.04
7.24
4.92
2.81
0.45
-2.68
-6.62
-10.85
-14.64
-17.48
-19.46
-21.24
-23.76
-27.63
-32.88
-38.97
-45.10
-50.53
-54.81
-57.74
-59.25
-59.43
-58.31
-56.02
-52.68
-48.45
-43.59
-38.43
-33.36
-28.81
-25.20
-22.71
-21.28
-20.53
-19.91
-18.88
-17.04
-14.37
-10.97
-7.09
-2.85
1.67
6.39
11.02
15.07
17.96
19.24
18.98
17.70
16.23
15.29
15.12
15.52
15.88
15.75
14.91
13.55
11.97
10.34
8.51
6.18
3.09
-0.83
-5.40
-10.33
-15.41
-20.53
-25.67
-30.57
-34.80
-37.64
-38.39
-36.52
-32.08
-25.62
-18.25
-11.21
-5.44
-1.32
1.59
4.17
7.18
10.81
14.44
17.10
17.89
16.65
13.93
10.80
8.19
6.61
6.08
6.34
7.16
8.51
10.56
13.61
17.87
23.31
29.58
36.04
41.77
45.87
47.64
46.88
43.89
39.51
34.87
31.03
28.57
27.16
25.80
23.03
17.56
8.95
-2.28
-14.65
-26.60
-36.96
-45.14
-50.98
-54.48
-55.43
-53.73
-49.56
-43.61
-36.89
-30.19
-23.88
-17.86
-11.94
-6.27
-1.57
1.36
2.00
0.68
-1.39
-2.68
-2.05
0.79
5.15
9.63
12.81
13.84
12.55
9.78
6.77
4.69
4.37
5.74
7.88
9.57
9.54
7.03
2.28
-3.65
-9.18
-12.83
-13.96
-12.97
-11.28
-10.82
-12.98
-18.22
-25.89
-34.43
-42.05
-47.19
-48.55
-45.32
-37.40
-25.74
-12.64
-1.51
4.52
3.95
-2.22
-10.58
-16.99
-18.44
-14.29
-6.23
2.90
10.80
16.60
20.88
24.86
29.47
34.79
40.05
44.28
46.76
47.37
46.53
45.07
43.71
42.75
41.93
40.58
37.96
33.79
28.40
22.60
17.30
12.98
9.51
6.28
2.74
-1.42
-6.07
-10.86
-15.46
-19.72
-23.54
-26.70
-28.66
-28.86
-27.01
-23.42
-18.97
-14.77
-11.64
-9.85
-8.98
-8.41
-7.58
-6.29
-4.62
-2.76
-0.84
1.15
3.22
5.32
7.28
8.96
10.35
11.62
13.03
14.78
16.85
18.85
20.07
19.73
17.35
12.96
7.18
1.12
-4.00
-7.20
-8.03
-6.63
-3.77
-0.59
1.50
1.29
-1.79
-7.38
-14.06
-19.82
-22.88
-22.30
-18.41
-12.49
-6.05
-0.18
4.69
8.64
11.74
13.99
15.20
15.40
15.11
15.18
16.46
19.35
23.60
28.40
32.81
36.06
37.78
37.97
36.93
35.18
33.29
31.74
30.72
30.11
29.43
28.15
25.89
22.55
18.39
13.81
9.16
4.57
0.09
-4.34
-8.60
-12.46
-15.66
-17.91
-19.21
-19.77
-19.98
-20.18
-20.58
-21.07
-21.36
-21.10
-20.05
-18.22
-15.81
-13.06
-10.18
-7.16
-3.94
-0.47
3.12
6.53
9.34
11.25
12.16
12.15
11.49
10.34
8.68
6.38
3.27
-0.61
-4.89
-9.11
-12.83
-15.80
-17.95
-19.25
-19.60
-19.02
-17.75
-16.35
-15.65
-16.36
-18.75
-22.46
-26.59
-30.14
-32.43
-33.15
-32.37
-30.21
-26.81
-22.35
-17.25
-12.10
-7.59
-4.25
-2.19
-1.19
-0.77
-0.52
-0.21
0.26
1.01
2.18
4.03
6.56
9.45
12.09
13.87
14.52
14.29
13.73
13.40
13.51
13.76
13.55
12.28
9.66
5.75
0.99
-4.25
-9.65
-15.05
-20.42
-25.72
-30.85
-35.68
-39.93
-43.15
-44.83
-44.45
-41.71
-36.74
-30.03
-22.43
-14.85
-8.04
-2.55
1.34
3.55
4.16
3.37
1.55
-0.79
-3.05
-4.69
-5.50
-5.55
-5.25
-5.17
-5.90
-7.75
-10.75
-14.57
-18.59
-22.16
-24.60
-25.52
-24.75
-22.36
-18.66
-14.04
-8.95
-3.86
0.81
4.72
7.56
9.22
9.85
9.93
10.14
11.06
12.75
14.58
15.37
13.98
10.04
4.39
-0.94
-3.54
-1.44
5.91
17.39
30.63
42.85
51.58
55.18
53.12
46.01
35.42
23.84
14.09
8.64
8.76
13.99
22.00
29.35
32.66
29.79
20.50
6.52
-9.39
-24.57
-37.33
-47.28
-54.96
-61.29
-66.83
-71.71
-75.70
-78.54
-80.17
-80.58
-79.72
-77.33
-73.05
-66.77
-58.81
-50.09
-41.78
-34.90
-29.99
-26.82
-24.66
-22.61
-20.10
-17.09
-14.02
-11.50
-9.82
-8.73
-7.62
-5.90
-3.31
-0.18
2.83
5.17
6.63
7.40
7.88
8.29
8.55
8.46
7.92
7.07
6.17
5.32
4.17
2.03
-1.89
-8.03
-16.10
-25.15
-33.95
-41.54
-47.89
-53.86
-60.74
-69.38
-79.41
-89.14
-95.98
-97.49
-92.45
-81.42
-66.48
-50.50
-36.08
-24.67
-16.42
-10.16
-3.77
5.39
19.87
41.43
70.09
103.63
137.57
166.30
184.87
190.79
184.89
170.89
153.67
137.31
123.54
111.57
99.17
84.28
66.16
45.90
25.79
8.19
-5.33
-14.39
-19.59
-21.81
-21.60
-19.03
-13.80
-5.80
4.32
15.35
25.84
34.81
42.21
48.87
55.73
63.32
71.35
78.96
85.33
90.28
94.32
98.43
103.33
109.18
115.26
120.09
121.63
117.63
105.80
84.58
53.86
15.92
-24.39
-60.36
-85.61
-96.38
-92.95
-79.32
-61.33
-44.29
-31.42
-23.84
-21.51
-24.31
-32.25
-44.75
-59.75
-73.52
-81.81
-81.56
-72.36
-56.72
-39.02
-23.63
-13.60
-10.24
-13.48
-22.40
-35.36
-49.76
-62.09
-68.46
-65.93
-53.95
-34.99
-13.68
5.03
17.86
24.23
25.64
23.93
19.89
13.06
2.71
-10.60
-24.36
-34.79
-38.92
-36.45
-30.25
-25.18
-25.72
-33.56
-46.86
-61.11
-71.10
-72.82
-64.45
-46.19
-19.66
12.70
47.73
81.43
109.25
126.83
131.30
122.19
101.86
74.68
45.65
19.03
-2.51
-18.22
-29.00
-36.66
-43.27
-50.43
-58.97
-68.94
-79.74
-90.39
-99.70
-106.39
-109.27
-107.54
-101.07
-90.54
-77.17
-62.37
-47.19
-32.25
-17.80
-4.01
8.66
19.61
28.18
34.24
38.27
41.28
44.43
48.56
54.01
60.64
68.02
75.41
81.93
86.64
88.65
87.58
83.84
78.71
74.09
71.69
72.10
74.24
75.53
72.72
63.26
45.94
21.58
-6.88
-34.83
-56.93
-68.54
-67.46
-54.98
-35.83
-16.66
-3.52
0.28
-4.74
-15.09
-26.22
-34.83
-39.98
-42.90
-45.44
-48.40
-50.85
-50.42
-44.54
-32.02
-13.89
6.61
25.28
38.79
45.97
48.02
47.47
46.66
46.45
46.16
44.59
41.24
37.02
33.85
33.31
35.73
39.64
42.48
41.98
37.30
29.37
20.38
12.54
7.16
4.34
3.15
2.24
0.53
-2.61
-7.23
-12.99
-19.23
-25.20
-30.15
-33.69
-35.79
-36.82
-37.29
-37.58
-37.75
-37.55
-36.50
-33.97
-29.30
-21.83
-10.99
3.49
21.49
42.44
65.26
88.38
109.76
127.12
138.36
142.03
137.82
126.80
111.15
93.54
76.42
61.34
48.93
39.12
31.58
25.95
21.90
18.89
16.09
12.44
6.97
-0.89
-10.95
-22.27
-33.51
-43.37
-51.19
-57.10
-62.07
-67.28
-73.82
-82.06
-91.46
-100.50
-107.13
-109.42
-106.32
-98.22
-86.83
-74.58
-63.77
-55.75
-50.66
-47.68
-45.34
-41.98
-36.07
-26.40
-12.40
5.53
26.00
46.76
65.30
79.44
87.91
90.39
87.46
80.21
70.26
59.60
50.52
45.17
44.97
50.04
59.01
69.49
78.82
85.01
87.41
86.83
85.21
84.73
87.14
92.99
101.40
110.25
116.68
117.72
111.16
96.24
73.73
45.69
14.87
-15.91
-44.05
-67.39
-84.29
-93.72
-95.49
-90.47
-80.50
-68.31
-56.99
-49.23
-46.86
-50.34
-59.09
-71.85
-87.09
-103.12
-118.08
-129.80
-136.15
-135.72
-128.40
-115.56
-99.72
-83.61
-69.26
-57.66
-48.78
-42.15
-37.23
-33.46
-30.24
-26.75
-22.21
-16.05
-8.17
1.08
11.10
21.04
30.04
37.12
41.57
43.25
42.76
41.35
40.25
40.16
40.73
40.76
38.77
33.57
24.87
13.35
0.36
-12.67
-24.51
-34.42
-42.02
-47.12
-49.71
-49.97
-48.46
-45.93
-43.13
-40.38
-37.52
-34.09
-29.72
-24.78
-20.39
-18.09
-19.20
-24.19
-32.22
-41.16
-48.02
-49.57
-43.37
-28.51
-6.13
20.65
47.79
71.36
88.57
98.14
99.91
94.05
80.85
60.74
34.95
5.91
-22.92
-48.05
-67.20
-80.08
-88.13
-93.55
-98.06
-102.25
-105.56
-107.06
-106.31
-103.72
-100.25
-96.77
-93.55
-90.10
-85.69
-79.84
-72.93
-65.89
-59.83
-55.37
-52.32
-49.76
-46.53
-41.76
-35.17
-27.47
-19.99
-14.41
-12.02
-13.14
-16.66
-19.88
-19.07
-10.52
8.18
37.25
74.30
114.86
153.75
186.61
210.91
225.75
231.31
228.21
217.38
200.43
179.99
159.47
142.39
131.34
126.87
127.57
130.72
133.20
132.30
125.64
111.68
90.24
63.03
33.58
6.47
-14.23
-26.86
-33.30
-39.47
-52.24
-76.29
-112.65
-159.47
-213.33
-269.89
-324.00
-369.62
-402.86
-421.01
-422.47
-407.39
-378.80
-341.92
-301.82
-260.79
-217.62
-172.23
-124.14
-71.84
-13.94
47.78
106.89
154.05
181.02
183.95
160.34
111.95
45.10
-32.13
-114.53
-201.45
-293.62
-389.45
-451.08
-447.08
-373.04
-255.77
-131.80
-26.74
49.22
97.92
127.46
143.60
152.57
156.79
159.13
164.64
178.00
200.77
231.93
269.12
304.67
325.68
322.58
296.45
258.23
221.10
193.23
176.50
167.73
161.49
152.08
136.37
116.41
98.07
88.99
90.79
101.54
115.73
126.22
126.87
114.97
92.69
65.20
37.42
11.37
-13.36
-38.34
-64.58
-90.29
-111.71
-124.82
-127.40
-119.72
-104.09
-82.97
-58.32
-31.78
-5.19
18.56
35.74
43.15
39.62
26.99
9.97
-5.60
-15.26
-17.37
-13.34
-6.34
0.81
6.98
12.64
18.70
24.99
29.69
30.46
25.92
16.91
6.32
-2.59
-7.93
-10.05
-10.84
-12.24
-14.73
-17.15
-17.72
-15.42
-10.90
-6.29
-4.07
-5.81
-11.32
-18.73
-25.42
-29.26
-29.30
-26.18
-21.61
-17.40
-14.73
-13.73
-13.62
-13.38
-12.42
-10.67
-8.49
-6.07
-3.40
-0.26
3.36
7.06
10.22
12.42
13.77
14.84
16.18
17.84
19.35
19.96
19.30
17.69
15.95
14.89
14.81
15.42
16.09
16.43
16.33
16.03
15.64
14.97
13.55
10.92
7.05
2.53
-1.86
-5.60
-9.05
-13.57
-20.83
-31.71
-45.45
-59.61
-70.98
-77.15
-77.65
-74.04
-68.87
-64.11
-60.17
-56.00
-50.11
-41.60
-30.71
-18.44
-5.82
6.36
17.52
26.87
33.43
36.50
36.34
34.12
31.77
31.01
32.70
36.59
41.41
45.51
47.14
44.90
38.29
27.97
16.01
5.76
1.30
6.00
21.25
45.39
73.98
101.22
121.93
133.36
135.83
132.18
126.06
120.17
115.40
110.98
105.60
98.58
90.34
82.12
75.10
69.57
64.87
59.57
52.28
42.27
29.67
15.68
1.73
-11.20
-23.00
-34.43
-46.58
-59.93
-73.85
-86.93
-97.67
-105.57
-111.33
-116.39
-121.86
-127.78
-132.99
-135.84
-135.07
-130.41
-122.57
-112.82
-102.42
-92.20
-82.43
-72.77
-62.63
-51.39
-38.85
-25.74
-13.44
-3.63
2.45
4.69
3.96
1.48
-1.78
-5.70
-10.70
-17.07
-24.35
-31.25
-35.91
-36.79
-33.10
-24.87
-12.83
2.09
19.09
37.61
57.38
78.25
99.86
121.44
141.76
159.10
171.61
177.55
175.46
164.60
145.31
119.34
89.86
60.80
35.76
17.07
5.08
-1.57
-5.11
-7.78
-11.21
-16.29
-23.37
-32.57
-43.64
-55.99
-68.66
-80.37
-89.96
-96.84
-100.94
-102.73
-102.99
-102.43
-101.62
-100.72
-99.27
-96.42
-91.08
-82.72
-71.84
-60.11
-49.99
-43.81
-42.84
-46.70
-53.66
-61.35
-67.82
-72.11
-74.14
-74.03
-71.29
-64.73
-52.77
-34.60
-11.00
15.23
39.94
59.00
69.87
72.46
69.01
63.21
58.88
58.89
64.80
76.51
92.23
108.41
120.07
121.90
110.17
84.56
49.18
11.61
-19.85
-39.27
-45.26
-40.89
-31.55
-21.99
-14.26
-7.39
1.22
13.65
29.88
47.56
63.09
73.50
77.85
77.59
75.66
74.87
76.32
78.99
80.59
79.06
74.10
67.30
61.11
57.17
54.85
51.49
43.80
29.85
10.42
-11.06
-29.89
-42.04
-45.60
-41.34
-31.93
-20.68
-10.31
-2.19
3.69
8.14
12.17
16.34
20.51
24.08
26.43
27.29
26.84
25.40
23.04
19.28
13.33
4.54
-6.84
-19.64
-31.82
-41.26
-46.47
-47.10
-43.99
-38.65
-32.71
-27.30
-22.76
-18.59
-13.85
-7.64
0.42
9.86
19.37
27.17
31.62
31.94
28.62
23.30
18.17
15.11
14.89
17.11
20.53
23.84
26.26
27.67
28.31
28.40
27.92
26.64
24.44
21.42
17.91
14.33
11.03
8.35
6.58
5.84
5.84
5.76
4.24
0.07
-7.19
-16.81
-26.97
-35.38
-40.09
-40.09
-35.51
-27.68
-18.67
-10.91
-6.66
-7.33
-13.08
-22.73
-34.17
-45.12
-53.90
-59.69
-62.64
-63.46
-63.14
-62.74
-63.13
-64.94
-68.30
-72.77
-77.52
-81.56
-84.19
-84.87
-83.33
-79.32
-72.72
-63.66
-52.74
-40.98
-29.41
-18.62
-8.47
1.71
12.83
25.19
38.46
51.62
63.41
72.76
79.06
82.24
82.62
80.94
78.17
75.51
74.14
74.79
77.48
81.25
84.51
85.71
84.20
80.71
77.15
75.71
77.93
84.18
93.48
104.18
114.45
122.42
126.26
124.20
114.86
97.99
75.05
48.89
23.04
0.23
-18.45
-33.61
-46.80
-59.28
-71.32
-82.14
-90.44
-95.26
-96.54
-95.06
-91.91
-87.87
-83.06
-77.28
-70.46
-63.22
-56.88
-53.18
-53.53
-58.54
-68.09
-81.50
-97.85
-115.89
-133.64
-148.15
-155.80
-153.23
-138.78
-113.44
-80.90
-46.47
-15.34
8.73
23.96
30.31
28.80
20.91
8.82
-4.52
-15.44
-20.32
-17.07
-6.23
8.88
23.24
32.27
33.84
28.90
20.75
13.13
8.38
6.66
6.62
6.89
7.38
9.44
14.68
23.58
34.67
45.20
52.85
57.00
58.90
60.51
62.61
63.95
62.08
55.18
43.95
31.87
23.77
23.19
30.54
42.95
55.86
65.40
69.91
69.98
67.48
63.85
59.32
52.85
43.04
29.27
12.48
-4.72
-19.01
-27.52
-29.13
-24.79
-17.20
-9.85
-5.91
-7.88
-17.29
-34.73
-59.39
-88.55
-117.12
-138.69
-147.19
-139.35
-116.21
-82.83
-46.30
-13.14
12.79
30.67
41.80
48.14
51.30
52.19
51.52
50.01
48.40
47.02
45.52
43.23
39.61
34.94
30.33
27.34
27.23
30.43
36.17
42.70
47.78
49.25
45.59
36.30
22.22
5.22
-12.11
-27.12
-37.64
-42.39
-41.09
-34.36
-23.37
-9.73
4.83
18.53
29.78
37.32
40.23
38.05
30.99
20.13
7.25
-5.28
-15.18
-21.02
-22.76
-21.81
-20.39
-20.56
-23.40
-28.57
-34.64
-39.87
-42.93
-43.55
-42.56
-41.49
-41.91
-44.81
-50.13
-56.69
-62.47
-65.19
-62.99
-55.18
-42.62
-27.59
-13.07
-1.70
4.89
6.45
3.80
-1.71
-8.70
-16.01
-22.61
-27.42
-29.23
-26.84
-19.39
-6.89
9.46
27.45
44.21
57.03
64.24
65.61
62.28
56.07
48.60
40.62
32.11
22.85
12.99
3.55
-4.06
-8.57
-9.50
-7.30
-3.03
2.21
7.40
11.52
13.20
10.72
2.63
-11.52
-30.52
-51.61
-71.46
-87.21
-97.37
-101.87
-101.48
-96.98
-88.92
-77.86
-64.70
-51.07
-38.82
-29.40
-23.32
-20.13
-18.80
-18.32
-18.13
-18.01
-17.82
-17.39
-16.42
-14.69
-12.33
-9.75
-7.45
-5.67
-4.34
-3.07
-1.45
0.65
2.92
4.58
4.66
2.37
-2.48
-9.45
-17.55
-25.65
-32.87
-38.74
-43.16
-46.14
-47.58
-47.46
-45.84
-43.16
-40.23
-37.93
-36.91
-37.35
-38.96
-41.21
-43.80
-46.67
-50.01
-54.04
-58.58
-63.11
-66.80
-69.06
-69.73
-69.08
-67.61
-65.80
-63.97
-62.18
-60.46
-58.76
-57.03
-55.10
-52.68
-49.49
-45.51
-41.13
-36.93
-33.56
-31.17
-29.46
-27.85
-25.89
-23.47
-20.89
-18.41
-16.09
-13.61
-10.59
-7.03
-3.57
-1.29
-1.35
-4.11
-8.90
-14.09
-17.90
-19.20
-18.14
-15.96
-14.28
-14.08
-14.97
-15.19
-12.32
-4.31
9.54
28.47
50.68
73.86
95.33
112.20
121.19
119.34
105.11
79.59
47.08
14.20
-12.23
-27.58
-30.87
-24.81
-14.00
-2.84
5.93
11.78
15.47
18.07
20.20
22.00
23.43
24.72
26.58
30.06
35.94
44.27
54.07
63.78
71.99
78.29
83.49
88.69
93.87
96.89
93.97
81.68
59.12
29.21
-2.27
-29.23
-48.15
-59.22
-65.48
-70.28
-75.01
-78.57
-78.56
-73.21
-63.02
-50.35
-38.15
-28.23
-20.56
-13.74
-5.94
3.67
14.39
24.32
31.51
34.90
35.07
33.96
33.97
36.98
43.76
53.86
65.84
77.65
86.65
90.15
86.08
73.89
55.17
33.43
12.71
-3.92
-15.76
-24.47
-32.77
-42.60
-54.18
-65.81
-75.16
-80.75
-82.53
-81.53
-78.93
-74.97
-68.86
-59.30
-45.17
-26.29
-3.52
21.49
46.32
68.17
84.25
92.50
92.43
85.71
75.61
65.90
59.46
57.14
57.98
60.25
62.60
64.87
67.70
71.60
76.10
79.58
79.97
75.98
67.93
57.63
47.64
40.17
35.92
33.93
32.12
28.22
21.04
10.63
-1.71
-14.00
-24.09
-29.85
-29.29
-20.84
-4.08
19.40
45.77
69.79
86.64
93.68
91.58
83.70
74.46
67.44
64.06
63.79
65.10
66.69
68.19
69.99
72.61
76.08
79.75
82.51
83.41
82.13
79.25
75.84
73.22
72.15
72.74
74.37
76.11
77.06
76.60
74.55
71.07
66.53
61.30
55.52
49.11
41.84
33.53
24.18
14.02
3.23
-8.28
-20.98
-35.44
-51.64
-68.47
-83.80
-95.13
-100.81
-100.85
-96.99
-91.84
-87.60
-85.11
-83.80
-82.40
-79.78
-75.57
-70.06
-63.63
-56.08
-46.50
-33.77
-17.30
2.30
23.18
42.88
59.31
71.65
80.63
88.10
96.22
106.39
118.69
131.79
143.26
150.54
151.78
146.65
136.49
123.82
111.40
100.95
92.56
84.71
75.30
62.72
46.66
28.18
8.81
-10.14
-28.27
-45.68
-62.21
-77.07
-88.92
-96.56
-99.86
-99.93
-98.65
-97.69
-97.65
-97.98
-97.58
-95.57
-91.98
-87.81
-84.37
-82.48
-81.86
-81.27
-79.13
-74.36
-66.68
-56.72
-45.37
-33.24
-20.41
-6.64
8.20
23.77
38.96
52.37
62.66
69.31
72.77
74.21
74.80
75.02
74.19
70.67
62.55
48.58
28.83
4.80
-21.27
-47.19
-71.44
-93.25
-112.19
-127.75
-139.10
-145.43
-146.44
-142.77
-136.03
-128.31
-121.47
-116.43
-112.84
-109.31
-104.29
-96.82
-87.08
-76.26
-65.83
-56.62
-48.35
-39.79
-29.27
-15.48
1.99
22.53
44.75
66.94
87.56
105.48
120.10
131.29
139.17
143.91
145.52
143.86
138.85
130.61
119.65
106.97
93.71
81.03
69.86
60.78
54.08
49.79
47.65
47.17
47.67
48.44
48.98
49.35
50.16
52.36
56.72
63.17
70.71
77.66
82.29
83.67
81.90
77.86
72.67
67.05
61.31
55.48
49.75
44.46
40.06
36.63
33.64
30.15
25.01
17.39
7.01
-5.80
-20.27
-35.51
-50.68
-65.11
-78.24
-89.59
-98.75
-105.32
-109.12
-110.16
-108.82
-105.86
-102.17
-98.59
-95.53
-92.77
-89.51
-84.56
-77.04
-66.79
-54.64
-42.31
-31.80
-24.57
-20.83
-19.45
-18.08
-14.12
-5.47
8.51
26.62
45.74
61.68
70.35
69.07
57.52
37.74
13.30
-12.05
-35.58
-56.13
-73.71
-88.73
-101.21
-110.45
-115.39
-115.19
-109.89
-100.60
-89.13
-77.44
-67.17
-59.38
-54.68
-53.69
-57.16
-65.92
-80.35
-99.72
-121.88
-143.32
-160.01
-168.16
-164.83
-148.00
-116.68
-71.25
-14.20
49.26
111.48
163.89
199.60
215.70
214.32
201.53
184.70
169.64
158.75
151.34
144.81
136.49
124.47
107.83
86.26
59.80
29.19
-3.74
-35.59
-61.73
-77.25
-78.36
-63.91
-35.99
0.26
38.01
70.59
93.17
103.90
103.98
96.87
86.93
78.01
72.13
69.28
67.67
65.07
60.09
53.04
45.67
39.92
36.57
34.41
30.93
23.72
12.16
-2.13
-15.99
-26.37
-31.57
-31.52
-27.06
-19.04
-7.99
5.64
20.89
35.97
48.71
57.25
60.61
58.76
52.06
40.66
24.43
3.27
-22.18
-50.00
-76.94
-99.15
-113.27
-117.75
-113.37
-102.98
-90.35
-78.49
-68.58
-59.80
-50.18
-38.18
-23.86
-9.03
3.53
11.53
14.26
12.79
9.31
6.14
4.91
6.25
10.01
15.35
21.07
25.84
28.53
28.68
26.85
24.56
23.78
26.15
32.15
41.01
50.93
59.54
64.45
63.69
56.06
41.66
22.47
2.17
-14.44
-23.12
-21.85
-11.80
3.19
18.23
29.39
34.89
35.12
31.70
26.11
19.09
10.78
1.38
-8.45
-17.63
-25.21
-30.91
-35.26
-39.22
-43.63
-48.79
-54.37
-59.58
-63.69
-66.19
-67.05
-66.55
-65.04
-62.71
-59.50
-55.21
-49.62
-42.82
-35.23
-27.74
-21.51
-17.64
-16.84
-19.21
-24.02
-29.99
-35.67
-39.85
-42.08
-42.76
-42.95
-43.93
-46.67
-51.58
-58.27
-65.56
-71.58
-74.12
-71.05
-61.14
-44.73
-23.97
-2.59
15.07
25.28
25.96
17.17
1.05
-18.92
-38.76
-54.83
-64.51
-66.51
-60.77
-48.53
-31.98
-13.94
2.46
14.39
19.92
18.65
11.88
2.30
-6.98
-13.49
-16.31
-16.16
-14.71
-13.77
-14.33
-16.23
-18.56
-20.20
-20.52
-19.58
-17.97
-16.45
-15.46
-15.11
-14.99
-14.52
-12.94
-9.55
-3.86
4.11
13.86
24.38
34.35
42.49
47.74
49.50
47.66
42.61
35.13
26.08
16.27
6.43
-2.72
-10.21
-14.92
-15.91
-12.94
-7.01
-0.41
4.11
4.32
-0.46
-9.13
-19.39
-28.87
-36.05
-40.76
-43.74
-46.04
-48.39
-50.89
-53.20
-54.88
-55.66
-55.66
-55.27
-54.78
-54.12
-52.89
-50.51
-46.72
-41.80
-36.71
-32.60
-30.40
-30.30
-31.80
-34.09
-36.49
-38.85
-41.54
-45.11
-50.15
-56.76
-64.62
-73.16
-81.77
-89.57
-95.55
-98.31
-96.51
-89.39
-77.13
-61.01
-43.15
-26.02
-11.77
-1.82
3.37
4.20
1.53
-3.27
-8.48
-12.35
-13.68
-11.95
-7.63
-1.92
3.53
6.52
5.54
0.40
-7.70
-16.93
-25.23
-31.21
-34.17
-34.16
-32.74
-31.00
-28.95
-26.12
-22.55
-18.71
-15.57
-13.47
-11.78
-11.09
-11.10
-10.48
-7.99
-3.57
1.96
6.58
8.43
6.22
-2.95
-19.65
-40.94
-61.70
-77.21
-84.40
-83.64
-77.42
-55.13
-17.24
25.22
59.24
79.66
86.12
86.81
86.50
86.84
87.53
86.84
83.22
77.32
71.31
66.96
65.50
66.46
69.25
73.09
75.60
75.41
73.33
71.54
72.15
76.87
85.76
97.62
109.98
118.39
119.10
111.19
96.71
79.55
64.02
52.92
47.08
45.51
45.92
46.37
46.43
46.77
47.94
49.85
51.69
52.49
51.90
50.04
47.60
45.58
44.94
45.82
47.52
48.47
46.99
42.22
34.71
26.46
20.29
18.59
22.22
30.06
39.42
47.47
52.36
54.02
53.72
53.35
54.14
56.02
57.79
57.71
54.93
49.93
44.44
40.21
38.12
37.71
37.46
35.77
31.64
25.11
16.69
6.19
-7.75
-26.83
-51.51
-80.17
-109.58
-136.28
-157.58
-172.17
-180.46
-184.24
-185.27
-184.08
-180.11
-172.31
-160.01
-142.60
-119.15
-89.33
-53.80
-13.85
29.49
75.37
122.92
165.36
193.12
200.34
189.04
167.15
142.92
121.55
104.72
91.59
82.61
75.03
67.90
61.10
54.25
46.43
36.71
24.49
9.41
-9.74
-32.64
-57.65
-83.14
-107.86
-131.01
-151.72
-169.06
-182.39
-191.36
-195.59
-194.29
-186.85
-173.44
-155.24
-133.98
-111.64
-90.04
-70.37
-53.02
-37.59
-23.50
-10.47
1.36
11.74
20.39
27.22
32.32
36.01
38.88
41.58
44.45
47.43
49.97
51.35
50.99
48.81
45.21
40.92
36.62
32.47
28.26
23.50
17.82
11.14
3.73
-3.93
-11.28
-17.61
-22.12
-23.94
-22.47
-17.65
-10.07
-0.81
9.01
18.48
27.11
34.71
41.24
46.53
50.43
52.83
53.86
53.95
53.64
53.39
53.41
53.62
53.71
53.33
52.09
49.62
45.76
40.41
33.85
26.67
19.77
14.15
10.64
9.63
10.80
13.32
15.86
17.09
15.80
11.32
3.64
-6.39
-17.11
-26.46
-32.54
-34.20
-31.43
-25.24
-17.15
-8.75
-1.14
5.18
10.16
13.90
16.47
17.84
17.86
16.55
14.21
11.40
8.89
7.32
6.92
7.44
8.23
8.56
7.93
6.27
3.81
0.92
-2.16
-5.35
-8.67
-12.22
-16.05
-20.21
-24.85
-30.04
-35.75
-41.63
-46.92
-50.66
-51.94
-50.02
-44.60
-35.88
-24.56
-11.98
0.36
11.07
19.23
24.68
27.86
29.53
30.43
30.99
31.31
31.51
31.70
32.08
32.89
34.21
36.01
38.05
39.87
40.69
39.92
37.20
32.48
26.37
19.83
14.28
10.64
8.89
7.81
6.18
3.22
-1.30
-6.57
-11.01
-11.97
-7.51
3.00
18.33
37.03
57.28
76.72
92.59
102.22
105.02
101.75
94.47
85.51
78.43
75.92
78.21
82.83
86.14
86.31
82.93
76.52
67.27
56.98
47.46
39.45
32.10
15.57
-15.05
-57.69
-99.26
-137.48
-173.10
-207.58
-240.78
-272.25
-300.96
-323.64
-336.75
-337.87
-327.35
-305.62
-273.91
-234.00
-187.91
-137.44
-83.47
-27.80
26.11
73.10
109.87
135.15
149.48
154.31
151.38
142.91
130.72
116.30
100.57
85.36
72.46
62.86
56.27
51.45
47.21
42.78
38.04
33.43
29.86
27.87
26.99
25.76
22.74
17.39
10.37
3.19
-2.68
-6.41
-8.14
-8.51
-7.85
-5.69
-1.02
7.07
18.69
32.96
48.15
62.22
73.57
81.52
86.56
89.85
92.74
96.49
101.79
108.25
114.30
117.72
116.49
110.04
99.32
86.90
76.84
73.83
81.44
100.08
126.17
152.11
168.62
167.32
143.72
99.29
40.98
-21.92
-81.64
-133.65
-176.92
-208.37
-222.16
-214.56
-188.15
-151.42
-115.71
-92.03
-86.64
-99.40
-123.27
-147.87
-163.73
-165.39
-152.23
-127.67
-99.59
-72.49
-50.48
-36.44
-31.99
-37.15
-49.43
-63.92
-73.01
-70.86
-54.76
-26.56
8.79
44.47
73.50
90.74
94.00
84.67
67.03
48.31
35.61
33.94
44.04
61.69
79.94
91.81
93.86
84.76
66.72
44.12
22.42
6.65
-0.25
2.68
13.57
28.50
42.29
50.72
51.58
45.16
33.62
19.11
3.89
-11.04
-25.35
-39.04
-51.60
-62.38
-71.01
-74.15
-72.55
-69.08
-67.80
-71.34
-79.60
-89.97
-99.01
-103.72
-102.74
-99.03
-91.24
-77.87
-57.89
-31.93
-3.07
23.19
41.37
47.68
41.51
26.75
8.31
-8.76
-19.99
-22.66
-16.34
-0.06
24.67
54.12
84.82
112.41
133.03
143.67
146.02
140.15
126.94
108.84
89.64
74.33
64.85
59.71
56.60
52.67
44.53
28.66
3.12
-31.06
-68.57
-104.63
-135.25
-158.59
-174.87
-178.44
-167.57
-145.09
-123.94
-104.02
-83.53
-59.03
-32.20
-6.54
14.50
28.41
35.49
38.45
41.96
47.68
54.90
61.09
64.23
63.40
58.25
49.52
38.33
26.39
13.22
-2.19
-20.35
-39.85
-57.61
-70.71
-76.91
-75.59
-67.13
-54.05
-39.34
-25.78
-15.45
-9.98
-11.28
-20.83
-39.13
-64.82
-95.47
-128.13
-160.17
-189.98
-216.52
-238.63
-254.02
-259.17
-250.35
-225.60
-185.93
-135.64
-81.20
-29.25
15.22
49.97
75.36
93.26
105.81
114.54
120.19
123.13
124.07
124.12
124.75
127.27
132.05
138.31
144.36
148.20
148.37
144.38
136.61
126.25
114.77
103.47
93.59
86.15
81.97
81.54
84.66
89.95
95.01
96.80
92.42
79.97
59.10
31.34
-0.18
-31.32
-57.98
-77.31
-88.59
-93.66
-96.15
-100.08
-108.19
-120.89
-136.21
-150.95
-161.91
-167.04
-165.54
-157.53
-143.72
-125.22
-103.64
-80.89
-58.89
-39.16
-22.44
-8.88
1.73
9.82
16.10
21.39
26.60
32.33
38.70
45.39
51.84
57.68
62.94
68.05
73.49
79.31
84.86
89.14
91.54
91.91
90.87
89.53
89.32
91.13
94.87
99.45
103.19
105.28
105.39
103.75
100.89
97.39
93.66
89.94
86.59
84.45
86.04
93.29
106.53
124.49
144.92
165.14
182.40
194.42
199.73
199.80
196.41
190.57
183.21
175.92
170.92
169.92
173.11
178.46
184.39
187.28
182.04
165.00
136.33
100.09
62.10
27.26
-17.85
-76.92
-144.73
-212.74
-275.35
-330.41
-376.31
-410.02
-427.46
-425.43
-404.79
-366.89
-317.84
-266.87
-222.46
-189.37
-167.84
-154.48
-144.20
-129.98
-108.01
-77.69
-40.96
-0.97
38.76
74.45
102.49
120.39
128.90
130.80
129.25
126.84
125.10
124.35
123.90
122.73
120.07
116.11
111.14
104.65
95.66
83.54
68.46
51.46
34.02
17.58
3.28
-8.30
-17.39
-24.84
-31.62
-38.46
-45.67
-53.07
-60.07
-65.80
-69.43
-70.37
-68.45
-63.80
-56.88
-48.31
-38.83
-29.31
-20.52
-13.09
-7.47
-3.90
-2.32
-2.39
-3.42
-4.60
-5.22
-4.86
-3.61
-1.95
-0.50
0.24
0.16
-0.44
-1.07
-1.33
-1.08
-0.61
-0.44
-1.16
-3.15
-6.38
-10.46
-14.79
-18.78
-22.20
-25.23
-28.31
-31.90
-36.21
-40.99
-45.57
-49.04
-50.46
-49.26
-45.36
-39.09
-31.16
-22.31
-13.20
-4.38
3.72
10.76
16.38
20.28
22.36
22.69
21.71
20.09
18.58
17.71
17.67
18.26
19.01
19.38
18.93
17.41
14.64
10.54
5.14
-1.48
-8.93
-16.62
-23.96
-30.59
-36.68
-43.08
-51.06
-61.95
-76.58
-94.81
-115.35
-135.69
-152.39
-161.77
-160.79
-148.06
-124.56
-93.55
-59.87
-28.50
-3.14
14.56
25.09
30.43
33.06
35.21
38.66
44.61
53.52
64.87
77.07
87.72
94.53
96.32
93.58
88.23
82.48
77.78
74.34
71.32
67.84
63.61
59.05
54.81
51.12
47.39
42.59
35.90
27.23
17.33
7.33
-1.96
-10.28
-17.92
-25.18
-31.72
-36.50
-38.12
-35.53
-28.71
-18.82
-7.74
2.76
11.64
18.83
24.79
29.91
34.19
37.16
38.38
37.79
35.87
33.37
31.00
29.12
27.79
27.02
26.93
27.80
29.67
32.12
34.11
34.44
32.23
27.53
21.21
14.60
8.70
3.66
-1.31
-7.55
-16.12
-27.36
-40.53
-54.18
-66.40
-75.49
-80.19
-80.01
-75.24
-66.94
-56.60
-45.87
-36.05
-27.78
-21.07
-15.54
-10.73
-6.43
-2.72
0.25
2.41
3.93
5.00
5.76
6.12
5.94
5.20
4.23
3.39
2.95
2.74
2.24
0.91
-1.48
-4.71
-8.22
-11.40
-14.04
-16.24
-18.40
-21.01
-24.43
-28.85
-34.16
-39.85
-44.92
-48.15
-48.38
-45.08
-38.55
-29.97
-20.92
-12.66
-5.84
-0.40
4.13
8.21
11.88
14.96
17.20
18.66
19.67
20.65
21.79
22.87
23.48
23.29
22.34
21.05
19.91
19.16
18.58
17.75
16.39
14.60
12.74
11.33
10.54
10.17
9.79
9.01
7.78
6.10
3.96
1.07
-3.11
-9.04
-16.64
-25.00
-32.55
-37.46
-38.48
-35.26
-28.60
-20.02
-11.09
-2.99
3.78
9.20
13.43
16.51
18.46
19.41
19.71
20.01
20.96
22.86
25.43
28.04
30.03
31.21
31.92
32.82
34.33
36.15
37.45
37.24
35.04
31.24
26.98
23.45
21.17
19.79
18.14
15.09
10.10
3.41
-4.06
-11.30
-17.61
-22.75
-26.73
-29.72
-31.91
-33.66
-35.50
-38.04
-41.71
-46.44
-51.55
-55.81
-57.88
-56.78
-52.26
-44.82
-35.56
-25.81
-16.56
-8.27
-0.88
5.85
12.01
17.29
20.98
22.45
21.44
18.43
14.60
11.43
10.16
11.44
15.05
20.07
25.15
28.93
30.46
29.28
25.62
20.21
14.11
8.39
3.82
0.74
-0.88
-1.42
-1.44
-1.41
-1.80
-2.96
-5.04
-8.06
-11.72
-15.60
-19.17
-22.04
-24.16
-25.88
-27.75
-30.22
-33.17
-35.80
-36.95
-35.54
-31.14
-24.14
-15.48
-6.21
2.82
11.13
18.41
24.38
28.78
31.56
32.85
33.12
32.86
32.44
32.02
31.65
31.32
31.07
30.84
30.42
29.53
28.02
26.06
24.08
22.51
21.47
20.64
19.30
16.73
12.49
6.57
-0.57
-8.13
-15.09
-20.22
-22.28
-20.36
-14.22
-4.70
6.30
16.20
22.58
23.94
20.32
13.07
4.21
-4.47
-12.12
-18.92
-25.44
-31.92
-37.68
-41.20
-40.86
-35.89
-26.83
-15.45
-4.04
5.56
12.58
17.31
20.65
23.40
25.87
27.78
28.61
28.03
26.27
24.09
22.51
22.32
23.71
26.18
28.72
30.31
30.38
28.92
26.46
23.72
21.28
19.51
18.58
18.52
19.15
20.05
20.52
19.85
17.60
14.13
10.57
8.52
9.46
14.12
22.20
32.45
43.04
51.85
56.79
56.20
49.36
37.15
22.43
10.03
5.65
13.88
36.05
68.88
104.84
134.44
149.25
144.32
118.93
75.65
18.63
-47.31
-116.61
-182.50
-237.24
-273.75
-288.20
-281.99
-261.62
-236.29
-214.13
-199.18
-190.68
-184.70
-176.77
-164.28
-147.50
-129.17
-112.65
-100.10
-91.19
-83.01
-71.30
-52.59
-26.09
5.62
37.45
64.27
83.11
94.39
101.20
107.36
115.14
124.28
132.46
137.00
136.42
130.86
121.84
110.86
98.56
84.62
68.35
49.80
30.48
13.11
0.44
-6.25
-8.25
-8.94
-12.38
-21.42
-36.29
-54.70
-72.93
-87.48
-96.45
-99.85
-98.71
-94.17
-87.00
-77.69
-66.81
-55.31
-44.35
-34.97
-27.72
-22.05
-16.60
-10.03
-1.47
8.98
20.57
32.33
43.12
52.11
59.39
66.01
73.39
82.63
93.99
107.09
120.77
132.88
140.88
142.62
136.80
123.08
101.97
75.03
43.83
13.86
-8.18
-19.40
-22.90
-25.33
-32.83
-48.34
-70.50
-94.37
-114.83
-129.01
-137.09
-140.83
-141.57
-139.11
-132.10
-121.42
-105.26
-83.80
-58.80
-32.03
-4.16
25.14
55.64
84.09
104.93
113.94
109.92
96.41
80.43
69.49
68.11
75.75
87.52
97.03
100.09
95.76
86.40
75.75
66.95
60.97
56.54
52.05
45.36
36.68
27.55
19.84
14.56
11.29
8.53
4.81
-0.44
-6.57
-11.78
-14.52
-14.15
-11.36
-7.55
-4.28
-2.48
-2.24
-3.21
-4.53
-5.61
-6.17
-6.36
-6.41
-6.79
-7.95
-9.51
-11.42
-13.54
-15.92
-18.52
-21.37
-24.53
-28.15
-32.42
-37.40
-42.76
-47.54
-50.35
-49.90
-45.61
-37.95
-28.26
-18.25
-9.20
-1.78
4.17
9.12
13.48
17.26
20.19
22.09
23.05
23.46
23.73
24.11
24.58
24.90
24.82
24.24
23.34
22.38
21.66
21.29
21.15
21.02
20.48
19.12
16.59
12.69
7.54
1.57
-4.51
-9.99
-14.31
-17.43
-19.73
-21.82
-24.26
-27.40
-31.36
-36.08
-41.46
-47.15
-52.39
-56.05
-56.84
-53.88
-47.18
-37.86
-27.67
-18.26
-10.53
-4.26
1.43
7.43
14.00
20.59
26.16
29.84
31.38
31.25
30.44
29.81
29.84
30.38
30.87
30.79
29.92
28.49
26.89
25.46
24.15
22.56
20.13
16.52
11.87
6.72
1.83
-2.16
-5.13
-7.43
-9.62
-12.23
-15.43
-19.02
-22.76
-26.46
-30.13
-33.86
-37.65
-41.12
-43.53
-43.93
-41.53
-36.06
-27.89
-17.94
-7.44
2.48
11.01
17.68
22.45
25.49
27.28
28.48
29.77
31.64
34.17
36.88
38.95
39.71
39.03
37.55
36.39
36.53
38.25
40.97
43.33
43.74
40.76
33.33
20.85
3.52
-17.08
-37.77
-54.09
-61.50
-57.20
-41.73
-19.31
3.43
19.68
24.96
18.47
2.81
-17.35
-37.26
-53.52
-64.80
-71.61
-75.81
-79.81
-86.11
-96.84
-113.40
-136.21
-164.15
-194.42
-222.70
-244.12
-254.88
-253.91
-243.64
-229.33
-216.89
-209.92
-207.77
-205.60
-196.37
-174.16
-137.07
-88.13
-34.21
16.72
58.60
89.11
109.93
125.07
138.60
152.62
166.68
178.60
186.12
188.36
186.20
181.65
176.61
172.21
169.05
167.86
170.07
177.40
190.72
208.92
228.62
244.95
252.92
249.10
232.52
204.97
170.68
135.33
104.58
82.20
68.65
61.04
54.17
42.99
24.81
0.22
-27.65
-55.08
-79.68
-101.02
-119.89
-136.92
-151.42
-161.39
-164.50
-159.53
-147.08
-129.64
-110.47
-92.47
-77.37
-65.41
-55.93
-47.98
-40.95
-34.61
-28.90
-23.54
-17.89
-11.06
-2.31
8.50
20.80
33.45
45.10
54.67
61.56
65.56
66.76
65.37
61.84
56.97
52.06
48.51
47.37
48.54
50.75
51.83
49.73
43.53
33.82
22.41
11.58
3.24
-1.48
-1.94
2.18
10.89
23.38
37.54
50.07
57.64
58.25
52.31
42.63
32.95
26.10
22.66
20.95
18.30
12.73
3.79
-7.35
-19.01
-29.93
-39.62
-47.97
-54.65
-58.72
-59.01
-54.86
-46.65
-36.07
-25.47
-16.97
-11.59
-9.02
-7.96
-6.89
-4.79
-1.45
2.64
6.80
10.56
13.83
16.76
19.56
22.29
24.84
27.05
28.81
30.14
31.11
31.64
31.53
30.55
28.50
25.37
21.36
16.67
11.54
6.10
0.36
-5.63
-11.84
-18.20
-24.66
-31.28
-38.21
-45.61
-53.43
-61.19
-67.90
-72.31
-73.24
-70.13
-63.32
-54.08
-44.20
-35.36
-28.51
-23.68
-20.14
-16.92
-13.54
-10.09
-7.19
-5.52
-5.22
-5.88
-6.72
-7.13
-7.01
-6.89
-7.33
-8.57
-10.26
-11.57
-11.78
-10.69
-8.82
-7.09
-6.34
-6.82
-8.18
-9.63
-10.42
-10.32
-9.60
-8.87
-8.75
-9.53
-11.22
-13.76
-17.09
-21.17
-25.85
-30.61
-34.52
-36.38
-35.07
-30.09
-21.67
-10.76
1.32
13.29
24.18
33.35
40.51
45.66
49.14
51.64
54.02
57.08
61.15
66.04
70.97
74.98
77.20
77.27
75.25
71.56
66.76
61.37
55.83
50.48
45.39
40.35
34.79
27.99
19.35
8.77
-3.24
-15.55
-26.66
-35.14
-39.98
-40.89
-38.49
-34.04
-29.05
-24.73
-21.45
-18.53
-14.69
-8.77
-0.40
9.78
20.47
30.30
38.13
43.55
46.62
47.59
46.81
44.82
42.36
40.47
39.93
40.79
42.52
44.15
44.80
43.80
40.96
36.51
30.96
24.76
17.41
8.59
-1.67
-12.98
-24.95
-37.53
-50.91
-65.36
-81.02
-99.21
-120.04
-142.28
-163.91
-183.38
-200.19
-214.71
-227.66
-239.72
-253.66
-270.62
-289.65
-308.29
-324.17
-335.68
-342.00
-342.64
-337.30
-328.66
-317.50
-302.33
-280.56
-251.04
-214.99
-175.37
-135.14
-78.09
-0.37
89.57
175.74
245.48
294.24
323.31
336.41
337.81
333.60
323.15
306.04
283.74
259.41
236.23
216.32
200.71
189.52
181.01
171.08
157.30
139.52
119.53
99.61
81.47
66.12
53.86
44.50
35.94
26.97
17.61
8.92
1.75
-3.74
-7.95
-11.39
-14.40
-17.76
-21.66
-25.86
-29.91
-33.61
-36.85
-39.15
-39.48
-36.33
-28.55
-15.49
2.42
23.50
44.96
63.59
76.78
83.19
83.05
77.97
70.24
62.13
55.18
49.95
46.28
43.56
41.22
38.87
36.40
33.91
31.49
29.10
26.59
23.89
21.05
18.28
15.36
11.84
7.29
1.56
-5.18
-12.47
-19.61
-25.85
-30.67
-34.69
-38.99
-44.32
-50.69
-57.45
-63.55
-67.69
-68.62
-65.37
-58.68
-50.12
-41.05
-32.25
-24.27
-17.82
-13.54
-11.86
-12.94
-18.02
-28.56
-44.91
-66.04
-90.04
-114.97
-138.98
-160.64
-170.09
-161.68
-138.50
-110.40
-86.51
-70.38
-60.96
-55.12
-49.64
-43.82
-36.06
-26.23
-15.17
-4.46
3.31
5.29
0.09
-11.17
-25.42
-38.86
-48.50
-52.75
-51.99
-48.25
-44.12
-41.24
-39.47
-37.10
-32.34
-24.28
-12.70
1.90
18.50
35.76
52.42
67.73
81.35
93.18
103.63
114.30
127.75
146.35
170.44
197.18
220.84
234.89
234.80
220.12
194.88
165.71
138.92
118.01
103.15
92.28
82.96
73.88
64.88
56.16
47.53
38.17
27.08
14.05
0.05
-13.08
-23.36
-29.68
-32.39
-33.21
-34.49
-38.30
-45.60
-55.89
-67.41
-77.73
-84.46
-85.98
-81.77
-72.48
-59.70
-45.30
-31.11
-18.40
-7.77
0.66
7.14
12.02
15.59
18.15
20.00
21.45
22.82
24.33
25.93
27.44
28.52
28.85
28.25
26.85
24.97
23.11
21.66
20.74
20.15
19.23
17.19
13.47
8.01
1.37
-5.45
-11.45
-16.10
-19.54
-22.47
-25.68
-29.75
-34.79
-40.52
-46.51
-52.32
-57.40
-61.12
-62.71
-61.30
-56.40
-48.09
-37.15
-24.87
-12.71
-1.85
7.01
13.72
18.48
21.65
23.64
24.87
25.76
26.70
27.87
29.22
30.36
30.88
30.52
29.49
28.32
27.56
27.41
27.45
26.84
24.81
21.02
15.87
10.17
4.76
0.06
-3.97
-7.73
-11.61
-15.80
-20.40
-25.41
-30.95
-36.96
-43.01
-48.21
-51.28
-51.08
-47.07
-39.55
-29.61
-18.71
-8.14
1.25
9.18
15.71
20.97
25.00
27.79
29.39
29.96
29.86
29.46
29.07
28.93
29.04
29.24
29.30
28.94
27.98
26.37
24.22
21.69
18.96
16.15
13.19
9.94
6.19
1.88
-2.82
-7.57
-12.06
-16.25
-20.48
-25.26
-31.01
-37.54
-43.78
-48.11
-48.91
-45.27
-37.45
-26.83
-15.24
-4.41
4.73
12.08
18.08
23.16
27.37
30.28
31.36
30.35
27.68
24.47
22.05
21.47
22.93
25.71
28.55
30.20
30.02
28.17
25.35
22.27
19.19
15.86
11.69
6.32
-0.12
-6.94
-13.18
-18.14
-21.67
-24.29
-26.88
-30.25
-34.59
-39.44
-43.73
-46.28
-46.23
-43.43
-38.28
-31.60
-24.18
-16.49
-8.82
-1.30
5.77
11.84
16.44
19.29
20.62
21.07
21.31
21.75
22.37
22.79
22.63
21.85
20.69
19.64
19.15
19.32
19.93
20.45
20.18
18.52
15.18
10.36
4.72
-0.91
-5.86
-9.92
-13.37
-16.62
-19.95
-23.36
-26.61
-29.61
-32.50
-35.59
-38.92
-42.13
-44.32
-44.45
-41.84
-36.46
-28.95
-20.42
-11.89
-4.10
2.58
8.08
12.37
15.44
17.39
18.40
18.82
19.02
19.26
19.57
19.88
20.01
19.93
19.70
19.30
18.66
17.65
16.18
14.43
12.70
11.28
10.17
9.01
7.24
4.56
1.08
-2.69
-6.10
-8.83
-10.95
-12.85
-15.09
-17.94
-21.47
-25.53
-29.94
-34.45
-38.66
-41.97
-43.70
-43.27
-40.39
-35.24
-28.43
-20.70
-12.88
-5.66
0.51
5.36
8.94
11.49
13.35
14.87
16.33
17.84
19.36
20.88
22.36
23.83
25.24
26.44
27.20
27.27
26.45
24.78
22.38
19.57
16.66
13.86
11.22
8.56
5.56
2.03
-1.94
-6.03
-9.81
-12.94
-15.36
-17.36
-19.33
-21.74
-24.78
-28.42
-32.28
-35.70
-37.93
-38.32
-36.61
-32.97
-27.87
-21.86
-15.38
-8.71
-2.07
4.09
9.19
12.59
13.95
13.43
11.66
9.52
7.82
7.00
7.06
7.77
8.75
9.81
10.85
11.87
12.85
13.66
13.92
13.35
11.79
9.38
6.52
3.64
0.99
-1.53
-4.11
-6.90
-9.75
-12.38
-14.56
-16.38
-18.32
-20.87
-24.12
-27.66
-30.47
-31.42
-29.82
-25.60
-19.38
-12.25
-5.29
0.64
5.09
8.03
9.75
10.68
11.21
11.53
11.61
11.40
10.86
10.21
9.71
9.63
10.00
10.72
11.61
12.54
13.52
14.45
15.12
15.13
14.00
11.51
7.86
3.60
-0.54
-4.01
-6.61
-8.52
-10.15
-12.02
-14.40
-17.40
-20.75
-23.92
-26.32
-27.38
-26.87
-24.95
-21.95
-18.19
-13.80
-8.58
-2.29
5.03
12.74
19.58
24.12
25.34
23.37
19.50
15.96
14.91
17.55
23.52
30.76
36.22
36.62
29.40
13.68
-9.25
-35.86
-60.90
-78.52
-84.04
-75.61
-55.46
-29.63
-6.30
6.74
4.54
-13.68
-44.82
-83.71
-125.13
-165.35
-202.26
-234.43
-260.22
-277.03
-281.93
-272.63
-248.49
-210.93
-163.15
-109.45
-54.44
-2.36
43.50
81.13
109.93
130.53
144.43
153.41
159.09
162.68
164.90
166.05
165.78
163.18
156.89
145.74
129.31
108.29
84.46
60.15
37.58
18.30
3.04
-8.43
-17.04
-24.04
-30.62
-37.35
-43.85
-49.05
-51.67
-51.01
-47.34
-41.72
-35.32
-28.90
-22.40
-15.35
-7.37
1.35
10.03
17.68
23.52
27.28
29.03
29.11
27.88
25.85
23.77
22.68
23.68
27.53
34.24
42.96
52.16
59.94
64.77
66.03
64.24
60.92
57.97
56.83
57.82
60.15
62.30
62.95
61.58
58.55
54.82
51.18
47.83
44.46
40.54
35.86
30.70
25.65
21.29
17.90
15.39
13.56
12.18
11.02
10.03
9.07
8.09
7.20
6.64
6.70
7.57
9.17
11.17
13.24
15.15
16.82
18.33
19.65
20.65
21.10
20.82
19.79
18.20
16.28
14.25
12.26
10.31
8.39
6.40
4.26
1.95
-0.49
-3.00
-5.56
-8.39
-11.93
-16.56
-22.44
-29.20
-36.02
-42.10
-47.00
-50.90
-54.39
-58.01
-61.92
-65.77
-69.05
-71.31
-72.36
-72.10
-70.33
-66.67
-60.69
-52.30
-41.93
-30.45
-18.99
-8.44
0.75
8.46
14.78
19.77
23.39
25.56
26.33
25.99
25.06
24.16
23.74
24.00
24.76
25.71
26.49
26.69
26.05
24.34
21.49
17.63
13.19
8.66
4.56
1.14
-1.74
-4.41
-7.20
-10.14
-12.89
-14.80
-15.27
-13.95
-10.83
-6.36
-1.23
3.74
7.90
10.89
12.73
13.71
14.24
14.52
14.58
14.37
13.83
13.13
12.57
12.41
12.80
13.63
14.58
15.28
15.43
14.79
13.38
11.30
8.70
5.82
2.75
-0.37
-3.59
-7.02
-10.88
-15.44
-20.79
-26.77
-33.03
-39.08
-44.50
-49.00
-52.41
-54.65
-55.69
-55.62
-54.74
-53.64
-52.96
-53.18
-54.32
-55.84
-56.96
-57.10
-56.19
-54.63
-53.00
-51.64
-50.40
-48.67
-45.67
-40.68
-33.30
-23.45
-11.43
2.09
16.27
29.96
41.96
51.29
57.30
60.01
59.94
58.01
55.25
52.60
50.53
49.07
47.78
45.83
42.44
37.06
29.59
20.53
10.86
1.75
-5.75
-10.99
-13.86
-14.62
-13.81
-11.90
-9.30
-6.38
-3.56
-1.29
0.03
0.17
-0.68
-2.12
-3.52
-4.28
-4.05
-2.74
-0.52
2.25
5.14
7.67
9.38
9.98
9.44
7.96
5.95
3.89
2.14
1.00
0.62
1.04
2.16
3.57
4.63
4.60
2.91
-0.60
-5.64
-11.59
-17.73
-23.41
-28.00
-30.84
-31.27
-28.81
-23.49
-16.00
-7.55
0.53
7.21
12.17
15.61
18.03
19.86
21.33
22.48
23.41
24.24
25.08
25.91
26.47
26.37
25.50
24.14
22.92
22.58
23.42
25.17
27.00
27.95
27.43
25.38
22.14
18.11
13.48
8.06
1.66
-5.78
-14.10
-22.96
-32.09
-41.31
-50.28
-58.35
-64.54
-67.80
-67.54
-63.93
-57.82
-50.48
-43.03
-36.19
-30.37
-25.76
-22.55
-20.93
-20.96
-22.39
-24.85
-27.85
-31.03
-34.21
-37.21
-39.79
-41.74
-42.92
-43.54
-44.05
-44.98
-46.79
-49.58
-53.22
-57.52
-62.15
-66.63
-70.13
-71.52
-69.67
-63.85
-54.11
-41.41
-27.35
-13.82
-2.68
4.57
7.16
5.35
0.70
-3.87
-4.96
0.20
12.75
31.85
55.03
78.96
100.22
115.85
123.71
122.84
113.94
99.41
82.88
68.18
58.01
53.11
52.54
54.44
57.32
60.46
63.69
66.85
69.42
70.54
69.75
67.33
64.12
61.06
58.66
56.63
54.00
49.79
43.44
35.25
26.26
17.72
10.68
5.43
1.38
-2.74
-8.39
-16.65
-27.68
-40.67
-53.92
-65.44
-73.50
-77.15
-76.35
-71.96
-65.27
-57.76
-50.91
-45.82
-43.20
-43.11
-44.84
-47.04
-47.89
-45.59
-38.81
-26.98
-10.36
10.07
32.81
55.98
77.49
95.28
107.77
114.17
114.91
111.47
105.80
99.65
93.89
88.29
81.93
73.83
63.62
51.79
39.35
27.32
16.22
5.96
-3.97
-13.94
-24.10
-34.25
-44.17
-53.96
-64.19
-75.65
-88.85
-103.51
-118.10
-130.15
-136.71
-135.37
-124.96
-106.02
-80.48
-51.14
-20.74
8.42
34.59
56.57
73.48
85.13
92.25
96.37
99.39
102.61
106.09
108.68
108.73
105.13
98.08
89.03
79.82
71.63
64.41
57.01
48.12
37.08
24.43
11.63
0.31
-8.49
-14.73
-19.31
-23.50
-28.46
-34.76
-42.59
-51.71
-61.92
-73.02
-84.33
-94.31
-100.31
-99.39
-89.64
-71.52
-48.15
-24.28
-4.15
10.28
19.88
27.35
35.21
44.26
53.31
60.34
63.99
64.69
64.28
64.88
67.53
71.53
74.71
74.50
69.03
57.87
42.31
25.15
9.74
-0.90
-5.03
-2.59
4.81
14.78
24.98
33.94
41.40
47.91
54.26
60.81
67.40
73.44
78.37
81.89
83.90
84.32
82.93
79.70
75.16
70.59
67.60
67.50
70.47
75.44
80.59
84.14
85.17
83.58
79.79
74.15
66.86
58.14
48.68
39.62
32.15
26.91
23.49
20.66
17.05
11.78
4.79
-3.27
-11.49
-19.11
-25.62
-30.88
-34.92
-37.93
-40.31
-42.61
-45.45
-49.27
-54.18
-59.82
-65.68
-71.17
-75.91
-79.81
-82.99
-85.83
-88.92
-93.00
-98.66
-106.02
-114.38
-122.41
-128.56
-131.62
-131.36
-128.39
-123.80
-118.53
-112.99
-107.01
-100.34
-92.99
-85.38
-78.24
-72.08
-67.05
-63.06
-59.94
-57.70
-56.53
-56.45
-56.99
-57.11
-55.31
-50.25
-41.15
-28.21
-12.61
3.87
19.47
32.97
43.95
52.72
59.90
66.03
71.39
75.89
79.31
81.54
82.67
83.02
82.92
82.58
82.07
81.26
79.94
77.96
75.14
71.38
66.69
61.17
55.17
49.23
43.91
39.65
36.54
34.17
31.85
28.75
24.16
17.76
9.57
0.16
-9.53
-18.24
-24.59
-27.41
-26.03
-20.51
-11.63
-0.74
10.61
20.97
29.25
34.83
37.49
37.35
34.75
30.28
24.46
17.76
10.44
2.53
-5.92
-14.61
-22.91
-29.82
-34.36
-36.00
-34.95
-32.09
-28.53
-25.16
-22.26
-19.64
-16.93
-14.14
-11.69
-10.21
-10.07
-11.10
-12.55
-13.56
-13.51
-12.37
-10.63
-8.89
-7.54
-6.65
-6.00
-5.45
-5.02
-5.03
-5.90
-7.84
-10.82
-14.47
-18.37
-22.14
-25.66
-28.96
-32.20
-35.56
-39.09
-42.78
-46.57
-50.39
-54.10
-57.44
-59.73
-60.05
-57.36
-50.98
-41.07
-28.62
-15.40
-3.42
5.70
11.11
12.80
11.34
7.62
2.51
-3.26
-8.95
-14.03
-17.94
-20.44
-21.61
-21.88
-21.89
-22.21
-23.08
-24.35
-25.65
-26.64
-27.34
-28.04
-29.00
-30.30
-31.62
-32.49
-32.63
-32.14
-31.55
-31.60
-32.84
-35.40
-39.01
-42.95
-46.18
-47.35
-45.08
-38.27
-26.52
-10.61
7.61
25.47
40.36
50.34
54.70
53.95
49.50
43.07
36.19
29.74
23.92
18.32
12.10
4.58
-4.50
-14.72
-25.11
-34.57
-42.39
-48.58
-53.95
-59.68
-66.81
-75.77
-86.40
-98.24
-110.89
-124.00
-137.03
-148.84
-157.62
-161.48
-159.25
-151.26
-139.41
-126.38
-114.43
-104.41
-95.49
-85.89
-74.00
-59.19
-41.98
-23.54
-4.84
13.68
32.00
49.90
66.48
80.09
89.00
92.34
90.97
87.90
87.64
95.00
113.50
143.81
183.06
225.42
263.67
291.25
304.02
300.79
283.08
254.03
217.38
176.79
135.46
96.01
60.38
29.52
3.34
-19.06
-38.79
-56.70
-72.95
-87.17
-98.82
-107.47
-113.04
-115.57
-115.09
-111.57
-105.08
-95.83
-84.45
-71.96
-59.57
-48.50
-39.75
-34.06
-31.86
-33.20
-37.63
-44.12
-51.09
-56.74
-59.60
-59.00
-55.34
-49.82
-44.03
-39.40
-36.89
-36.79
-38.71
-41.78
-44.85
-46.91
-47.38
-46.47
-44.90
-43.81
-44.17
-46.39
-50.44
-55.61
-60.64
-63.65
-62.64
-56.36
-45.09
-31.08
-17.86
-8.69
-4.96
-5.45
-7.05
-6.49
-1.98
5.94
15.07
23.04
28.51
31.68
33.69
35.59
37.76
39.85
41.29
41.79
41.61
41.16
41.01
41.30
41.70
41.69
40.79
38.71
35.49
31.47
26.85
21.88
16.42
10.13
2.50
-6.88
-17.77
-28.73
-37.11
-39.95
-35.41
-24.25
-9.95
2.67
9.56
9.61
4.98
-0.26
-2.49
-0.39
4.55
9.41
11.80
11.10
8.46
5.73
4.11
3.39
2.38
-0.20
-4.86
-10.94
-17.14
-22.14
-25.56
-28.13
-31.35
-36.65
-44.61
-54.70
-65.50
-75.51
-84.04
-91.56
-99.34
-108.90
-120.97
-135.00
-149.24
-161.12
-167.87
-167.26
-158.27
-141.71
-120.34
-98.18
-79.21
-65.98
-58.63
-55.05
-52.09
-47.15
-39.22
-29.07
-18.20
-7.85
1.72
11.08
20.76
30.57
39.67
46.92
51.81
54.83
57.12
59.79
63.53
68.08
72.69
76.76
80.21
83.74
88.50
95.53
105.31
117.53
131.11
144.51
156.02
164.04
167.33
165.16
157.65
145.88
131.84
118.07
107.06
100.56
99.17
102.26
108.35
115.73
123.03
129.46
134.78
138.88
141.44
141.89
139.69
134.77
127.85
120.36
113.80
109.07
105.95
103.27
99.48
93.49
85.13
75.04
64.16
53.13
42.07
30.79
19.22
7.74
-3.05
-12.53
-20.52
-27.35
-33.58
-39.71
-45.74
-51.24
-55.63
-58.72
-60.86
-63.05
-66.37
-71.41
-77.82
-84.29
-88.93
-89.92
-86.21
-77.69
-65.27
-50.28
-34.11
-17.93
-2.51
11.58
23.95
34.36
42.78
49.49
55.04
60.15
65.46
71.29
77.43
83.39
88.50
92.17
93.98
93.57
90.67
85.08
76.82
66.24
54.08
41.16
28.14
15.36
2.77
-9.76
-22.29
-34.60
-46.38
-57.15
-66.48
-73.89
-78.86
-81.04
-80.35
-77.12
-72.04
-65.92
-59.50
-53.33
-47.83
-43.32
-40.08
-37.97
-36.40
-34.27
-30.41
-24.13
-15.56
-5.66
4.14
12.57
18.97
23.27
25.86
27.23
27.64
27.16
25.69
23.21
19.76
15.56
10.88
5.99
1.12
-3.51
-7.68
-11.21
-13.96
-15.88
-17.07
-17.74
-18.06
-18.05
-17.54
-16.08
-13.30
-8.97
-3.26
3.29
10.02
16.41
22.21
27.42
32.05
35.87
38.44
39.34
38.62
36.95
35.40
34.98
36.02
38.05
40.02
40.99
40.56
39.17
37.74
37.17
38.01
40.21
43.31
46.71
49.92
52.65
54.86
56.62
58.06
59.22
59.92
59.89
58.87
56.69
53.47
49.53
45.17
40.55
35.64
30.25
24.32
18.00
11.73
6.11
1.64
-1.40
-3.12
-3.97
-4.54
-5.30
-6.50
-8.03
-9.52
-10.65
-11.26
-11.43
-11.46
-11.60
-11.97
-12.53
-13.11
-13.58
-13.95
-14.22
-14.29
-13.83
-12.29
-9.01
-3.63
3.76
12.48
21.48
29.80
36.88
42.72
47.61
51.60
54.31
54.90
52.51
46.82
38.28
27.92
16.84
5.69
-5.46
-16.83
-28.43
-39.60
-49.04
-55.31
-57.45
-55.53
-50.76
-45.17
-41.00
-40.06
-43.19
-50.27
-60.42
-72.50
-85.49
-98.69
-111.63
-123.92
-135.10
-144.68
-152.33
-157.98
-161.91
-164.58
-166.50
-167.92
-168.99
-169.67
-169.90
-169.65
-168.76
-166.88
-163.26
-156.86
-146.60
-131.82
-112.63
-89.97
-65.59
-41.41
-19.12
0.24
16.32
29.32
39.66
47.79
54.01
58.52
61.53
63.27
64.07
64.24
63.89
63.03
61.49
59.18
56.25
53.13
50.34
48.19
46.55
44.81
42.24
38.38
33.38
27.99
23.13
19.53
17.45
16.79
17.34
18.99
21.68
25.32
29.52
33.63
37.04
39.33
40.43
40.50
39.85
38.69
37.30
36.03
35.36
35.79
37.53
40.35
43.61
46.48
48.41
49.29
49.38
49.02
48.33
46.94
44.35
40.25
34.86
28.94
23.40
18.88
15.50
12.96
10.84
9.01
7.66
7.15
7.67
8.92
10.14
10.43
9.10
5.90
1.18
-4.47
-10.38
-16.08
-21.41
-26.36
-30.87
-34.76
-37.72
-39.46
-39.96
-39.60
-39.10
-39.24
-40.49
-42.83
-45.72
-48.29
-49.64
-49.18
-46.71
-42.59
-37.36
-31.63
-25.84
-20.21
-14.79
-9.77
-5.48
-2.26
-0.37
0.32
0.20
-0.24
-0.62
-0.76
-0.62
-0.15
0.65
1.80
3.16
4.33
4.92
4.64
3.53
1.90
0.23
-1.12
-2.04
-2.72
-3.54
-4.91
-7.12
-10.24
-13.99
-17.80
-20.97
-22.95
-23.64
-23.50
-23.33
-24.01
-26.00
-29.24
-33.21
-37.17
-40.53
-42.93
-44.16
-44.06
-42.50
-39.38
-34.82
-29.20
-23.09
-17.16
-11.92
-7.59
-4.14
-1.30
1.28
3.82
6.35
8.73
10.63
11.83
12.28
12.25
12.25
12.78
14.04
15.76
17.41
18.30
18.07
16.74
14.73
12.69
11.08
9.99
9.11
7.85
5.63
2.30
-1.79
-5.85
-8.98
-10.65
-10.92
-10.49
-10.44
-11.73
-14.77
-19.41
-24.96
-30.55
-35.44
-39.00
-40.77
-40.41
-37.71
-32.84
-26.41
-19.41
-12.90
-7.67
-3.82
-0.93
1.73
4.71
8.05
11.35
14.02
15.62
16.08
15.74
15.07
14.55
14.55
15.24
16.68
18.71
20.97
22.96
24.18
24.25
23.13
21.01
18.27
15.21
11.98
8.62
5.14
1.63
-1.75
-4.86
-7.59
-9.96
-12.07
-14.17
-16.51
-19.37
-22.91
-26.97
-31.11
-34.65
-36.80
-37.05
-35.19
-31.40
-26.18
-20.20
-13.99
-7.98
-2.42
2.54
6.79
10.20
12.74
14.44
15.48
16.06
16.26
16.24
16.07
15.93
16.04
16.56
17.52
18.79
20.09
21.11
21.57
21.29
20.10
17.94
14.87
11.09
6.98
2.99
-0.50
-3.34
-5.54
-7.31
-9.04
-11.24
-14.50
-19.22
-25.33
-32.16
-38.51
-43.14
-45.15
-44.30
-40.97
-35.76
-29.33
-22.11
-14.45
-6.83
0.06
5.40
8.57
9.52
8.81
7.54
6.90
7.59
9.72
12.73
15.76
18.02
19.06
18.68
17.06
14.81
12.98
13.16
17.05
25.83
39.56
56.86
75.41
92.75
107.07
117.52
124.09
127.15
127.10
124.27
118.89
111.31
102.06
91.79
81.25
71.36
62.98
56.81
53.04
51.18
50.27
49.31
47.68
45.38
42.78
40.07
37.09
33.23
27.84
20.74
12.38
3.67
-4.35
-11.08
-16.42
-20.75
-24.46
-27.72
-30.36
-32.05
-32.64
-32.30
-31.63
-31.35
-32.09
-34.04
-36.81
-39.65
-41.61
-42.04
-40.82
-38.35
-35.38
-32.70
-30.83
-29.98
-30.17
-31.47
-33.97
-37.79
-42.66
-47.96
-52.57
-55.25
-55.12
-52.03
-46.63
-40.20
-34.07
-29.17
-25.78
-23.59
-22.05
-20.83
-19.91
-19.59
-20.23
-21.97
-24.53
-27.30
-29.39
-30.10
-29.04
-26.40
-22.88
-19.53
-17.33
-16.80
-17.78
-19.44
-20.82
-21.35
-21.09
-20.80
-21.32
-23.03
-25.60
-28.03
-29.22
-28.64
-26.51
-23.67
-21.21
-19.83
-19.67
-20.50
-21.87
-23.42
-24.88
-25.93
-26.12
-24.94
-21.96
-17.15
-11.02
-4.42
1.71
6.74
10.51
13.30
15.60
17.74
19.73
21.24
21.87
21.43
20.16
18.63
17.40
16.75
16.44
15.92
14.78
13.03
11.11
9.65
8.96
8.83
8.65
7.72
5.66
2.63
-0.76
-3.78
-5.87
-6.89
-7.06
-7.03
-7.64
-9.65
-13.44
-18.73
-24.59
-29.74
-33.02
-33.73
-31.88
-28.00
-22.77
-16.90
-10.91
-5.18
-0.15
3.73
6.05
6.63
5.66
3.75
1.75
0.51
0.60
2.08
4.61
7.54
10.24
12.42
14.07
15.43
16.74
17.93
18.70
18.57
17.16
14.41
10.65
6.37
2.19
-1.51
-4.54
-6.96
-8.90
-10.52
-11.99
-13.58
-15.72
-18.92
-23.55
-29.58
-36.34
-42.66
-47.03
-48.17
-45.45
-39.19
-30.61
-21.37
-12.97
-6.18
-0.88
3.65
8.13
12.75
17.15
20.66
22.81
23.78
24.14
24.56
25.34
26.20
26.68
26.49
25.82
25.17
24.98
25.24
25.54
25.26
24.10
22.19
19.91
17.56
15.16
12.39
8.89
4.63
-0.08
-4.69
-8.69
-11.88
-14.40
-16.64
-19.18
-22.53
-27.06
-32.86
-39.48
-45.85
-50.50
-52.07
-49.69
-43.54
-34.62
-24.42
-14.36
-5.35
2.33
8.78
14.26
18.90
22.63
25.35
26.93
27.50
27.35
26.93
26.70
27.00
27.90
29.20
30.55
31.59
32.15
32.17
31.67
30.60
28.89
26.44
23.29
19.68
15.86
12.13
8.51
4.98
1.42
-2.21
-5.81
-9.24
-12.33
-15.03
-17.45
-19.88
-22.81
-26.73
-31.93
-38.10
-44.32
-49.10
-50.80
-48.33
-41.58
-31.52
-19.87
-8.43
1.58
9.66
15.90
20.59
23.94
26.00
26.84
26.74
26.25
25.98
26.36
27.50
29.09
30.57
31.49
31.49
30.54
28.79
26.47
23.81
21.05
18.33
15.73
13.21
10.67
8.00
5.08
1.85
-1.60
-5.19
-8.82
-12.40
-15.94
-19.48
-23.09
-26.92
-31.06
-35.60
-40.42
-44.96
-48.30
-49.32
-47.08
-41.37
-32.81
-22.79
-12.89
-4.30
2.62
8.29
13.48
18.71
23.94
28.57
31.88
33.44
33.50
32.83
32.34
32.69
34.01
35.83
37.54
38.66
39.03
38.81
38.14
36.96
35.10
32.29
28.43
23.72
18.56
13.37
8.48
3.93
-0.32
-4.32
-8.07
-11.47
-14.44
-17.09
-19.69
-22.58
-26.09
-30.40
-35.57
-41.50
-47.87
-54.02
-58.89
-61.24
-59.98
-54.62
-45.45
-33.54
-20.41
-7.49
3.99
13.25
19.90
23.97
25.98
26.83
27.64
29.19
31.76
34.95
38.10
40.60
42.29
43.50
44.67
46.07
47.62
48.95
49.53
48.93
46.86
43.29
38.48
32.89
27.21
22.07
17.81
14.30
11.05
7.49
3.31
-1.39
-6.15
-10.43
-14.04
-17.29
-20.86
-25.55
-31.71
-39.08
-46.95
-54.37
-60.35
-64.26
-65.54
-63.75
-58.66
-50.39
-39.53
-27.08
-14.25
-2.06
8.69
17.66
24.70
29.79
33.13
35.07
36.06
36.62
37.15
37.88
39.01
40.54
42.44
44.53
46.47
47.91
48.55
48.24
47.02
44.96
41.97
37.94
32.95
27.35
21.84
17.26
14.12
12.26
10.86
8.89
5.53
0.62
-5.25
-10.94
-15.44
-18.38
-20.13
-21.64
-23.99
-27.88
-33.38
-40.11
-47.27
-53.98
-59.22
-61.92
-61.17
-56.44
-47.95
-36.69
-24.19
-12.04
-1.36
7.33
14.13
19.44
23.62
26.85
29.27
30.93
31.97
32.62
33.10
33.58
34.11
34.75
35.51
36.36
37.11
37.44
37.01
35.47
32.84
29.52
26.16
23.33
21.23
19.47
17.35
14.23
9.84
4.61
-0.71
-5.37
-9.03
-11.97
-14.83
-18.15
-22.08
-26.30
-30.26
-33.76
-37.19
-41.31
-46.84
-53.62
-60.33
-64.87
-65.12
-60.02
-50.06
-37.07
-23.38
-11.04
-1.10
6.34
11.82
15.98
19.15
21.44
22.71
22.83
21.76
19.80
17.49
15.63
14.93
15.75
17.83
20.29
22.01
22.21
20.70
17.99
14.97
12.44
10.68
9.41
7.95
5.67
2.40
-1.53
-5.38
-8.46
-10.48
-11.77
-13.02
-15.02
-18.21
-22.51
-27.56
-32.91
-38.29
-43.52
-48.33
-52.05
-53.67
-52.18
-47.14
-38.94
-28.72
-17.99
-7.95
0.86
8.44
15.05
20.79
25.36
28.30
29.24
28.32
26.30
24.24
23.08
23.32
24.77
26.82
28.69
29.81
30.02
29.41
28.22
26.60
24.54
21.95
18.76
15.00
10.80
6.37
1.98
-2.20
-6.02
-9.52
-12.92
-16.51
-20.60
-25.25
-30.32
-35.45
-40.20
-44.12
-47.00
-48.71
-49.03
-47.67
-44.24
-38.46
-30.48
-20.92
-10.88
-1.49
6.48
12.75
17.48
20.92
23.15
24.05
23.56
21.89
19.72
17.96
17.30
17.88
19.28
20.74
21.62
21.69
21.11
20.23
19.30
18.17
16.49
13.93
10.28
5.77
0.87
-3.87
-7.96
-11.22
-13.77
-15.90
-18.18
-21.22
-25.55
-31.46
-38.61
-46.02
-52.24
-55.78
-55.67
-51.80
-44.95
-36.32
-27.07
-17.91
-9.04
-0.44
7.79
15.21
21.08
24.85
26.39
26.25
25.48
25.10
25.70
27.15
28.78
29.84
29.90
29.02
27.63
26.28
25.15
24.24
23.25
21.85
19.81
17.00
13.41
9.17
4.39
-0.69
-5.79
-10.77
-15.52
-20.06
-24.51
-29.01
-33.74
-38.88
-44.61
-50.84
-57.16
-62.76
-66.51
-67.39
-64.69
-58.39
-49.05
-37.77
-25.92
-14.75
-5.13
2.63
8.64
13.39
17.28
20.56
23.26
25.18
26.27
26.70
26.77
26.84
27.29
28.28
30.01
32.60
36.09
40.12
43.96
46.65
47.39
45.91
42.45
37.49
31.38
24.32
16.52
8.40
0.87
-5.23
-9.51
-12.47
-15.38
-19.67
-26.23
-34.62
-43.54
-51.03
-55.43
-55.80
-51.90
-44.13
-33.19
-19.84
-4.59
12.02
29.13
44.99
57.01
62.42
59.43
48.51
32.54
16.13
3.72
-2.17
-1.85
2.24
6.85
9.65
10.13
9.19
8.26
8.26
9.27
10.70
11.76
12.03
11.36
10.09
8.56
6.94
5.14
2.85
-0.24
-4.29
-9.28
-14.96
-21.02
-27.17
-33.04
-38.14
-41.75
-43.05
-41.39
-36.48
-28.64
-18.81
-8.33
1.43
9.34
14.88
18.15
19.70
20.34
20.83
21.58
22.68
23.90
25.00
25.81
26.28
26.48
26.46
26.21
25.67
24.84
23.73
22.38
20.81
19.01
16.88
14.30
11.19
7.59
3.73
-0.03
-3.29
-5.87
-7.98
-10.12
-12.98
-17.00
-22.18
-28.03
-33.85
-39.12
-43.66
-47.58
-51.02
-53.87
-55.51
-55.13
-52.04
-46.07
-37.72
-27.95
-17.89
-8.37
0.16
7.68
14.24
19.95
24.77
28.58
31.36
33.20
34.24
34.71
34.88
34.88
34.91
35.11
35.51
36.04
36.44
36.40
35.64
34.03
31.64
28.71
25.52
22.14
18.52
14.45
9.78
4.56
-0.96
-6.37
-11.37
-15.90
-20.18
-24.46
-28.92
-33.49
-38.03
-42.47
-46.96
-51.72
-56.73
-61.30
-64.12
-63.74
-59.12
-50.36
-38.68
-25.98
-14.13
-4.26
3.42
9.34
14.08
18.09
21.43
24.01
25.89
27.21
28.41
29.91
31.89
34.30
36.72
38.53
39.20
38.47
36.57
34.14
31.97
30.59
30.01
29.68
28.87
27.05
24.23
20.94
17.97
15.78
14.30
12.94
10.84
7.39
2.57
-3.07
-8.67
-13.40
-16.95
-19.46
-21.54
-23.88
-27.08
-31.43
-36.88
-42.98
-48.93
-53.68
-56.11
-55.36
-51.09
-43.68
-34.18
-24.02
-14.52
-6.63
-0.56
4.00
7.69
11.14
14.70
18.36
21.89
24.92
27.23
28.85
29.94
30.81
31.63
32.39
32.90
32.91
32.25
31.00
29.34
27.43
25.36
23.14
20.75
18.22
15.68
13.28
11.05
8.87
6.52
3.84
0.81
-2.41
-5.59
-8.61
-11.51
-14.45
-17.65
-21.23
-25.18
-29.54
-34.26
-39.14
-43.76
-47.36
-49.00
-47.84
-43.53
-36.47
-27.74
-18.62
-10.20
-2.95
3.22
8.64
13.59
17.98
21.38
23.46
24.17
23.85
23.19
22.84
23.15
24.14
25.58
27.12
28.50
29.43
29.73
29.26
28.05
26.21
24.02
21.77
19.66
17.86
16.35
15.09
13.84
12.23
9.79
6.21
1.50
-3.84
-9.03
-13.44
-16.91
-19.94
-23.46
-28.33
-34.85
-42.49
-50.01
-55.88
-58.71
-57.72
-52.92
-45.02
-35.20
-24.84
-15.16
-6.96
-0.54
4.25
7.84
10.68
13.16
15.41
17.43
19.24
20.93
22.59
24.35
26.11
27.65
28.77
29.38
29.61
29.73
29.84
29.78
29.28
27.97
25.79
22.92
19.71
16.52
13.51
10.67
7.92
5.11
2.17
-0.92
-4.13
-7.47
-10.90
-14.39
-17.86
-21.25
-24.64
-28.16
-31.98
-36.30
-41.10
-46.01
-50.37
-53.18
-53.42
-50.42
-44.21
-35.50
-25.55
-15.73
-7.05
0.06
5.67
10.21
14.11
17.62
20.78
23.50
25.77
27.71
29.50
31.29
33.06
34.62
35.64
35.79
34.97
33.34
31.25
29.15
27.26
25.56
23.75
21.44
18.46
14.91
11.10
7.39
3.97
0.77
-2.38
-5.61
-8.92
-12.17
-15.30
-18.42
-21.77
-25.61
-30.06
-35.00
-40.13
-45.01
-49.08
-51.69
-52.19
-50.01
-45.11
-37.94
-29.49
-20.92
-13.07
-6.26
-0.27
5.36
10.82
15.89
20.01
22.66
23.71
23.61
23.17
23.20
24.11
25.69
27.26
28.09
27.73
26.32
24.41
22.56
21.05
19.81
18.39
16.42
13.68
10.21
6.26
2.21
-1.67
-5.14
-8.11
-10.66
-12.97
-15.30
-17.88
-20.81
-24.12
-27.84
-32.00
-36.60
-41.36
-45.53
-48.01
-47.65
-43.85
-36.91
-28.06
-18.91
-10.82
-4.31
0.93
5.59
10.24
14.86
18.89
21.67
22.88
22.86
22.45
22.51
23.43
25.06
26.70
27.73
27.83
27.20
26.27
25.38
24.45
23.12
20.93
17.75
13.92
10.04
6.66
4.00
1.77
-0.59
-3.56
-7.30
-11.60
-16.03
-20.29
-24.37
-28.54
-33.12
-38.12
-43.07
-47.08
-49.17
-48.60
-45.10
-39.05
-31.25
-22.64
-14.07
-6.17
0.68
6.26
10.44
13.19
14.71
15.35
15.65
16.17
17.22
18.78
20.51
21.90
22.56
22.42
21.73
20.90
20.24
19.73
19.09
17.76
15.32
11.63
6.94
1.90
-2.74
-6.40
-8.78
-9.98
-10.56
-11.18
-12.49
-14.96
-18.67
-23.46
-28.99
-34.90
-40.68
-45.65
-48.75
-48.89
-45.25
-37.75
-27.34
-15.78
-5.06
3.36
9.10
12.84
15.71
18.64
21.89
24.96
27.18
28.17
28.04
27.50
27.26
27.73
28.75
29.80
30.20
29.72
28.47
26.92
25.52
24.33
23.00
20.93
17.62
13.03
7.66
2.26
-2.51
-6.32
-9.34
-12.03
-14.86
-18.19
-22.18
-26.97
-32.64
-39.03
-45.57
-51.25
-54.72
-54.83
-51.11
-44.00
-34.80
-25.03
-15.92
-8.04
-1.38
4.45
9.71
14.42
18.40
21.36
23.21
24.07
24.24
24.12
24.03
24.18
24.58
25.06
25.33
25.09
24.09
22.32
20.07
17.72
15.63
13.82
11.96
9.54
6.16
1.73
-3.35
-8.49
-13.17
-17.11
-20.51
-23.79
-27.41
-31.67
-36.62
-42.02
-47.37
-51.96
-54.89
-55.36
-52.80
-47.12
-38.88
-29.02
-18.66
-8.76
0.05
7.57
13.84
18.99
23.08
26.01
27.74
28.34
28.19
27.82
27.82
28.49
29.78
31.23
32.22
32.30
31.31
29.41
26.95
24.19
21.23
18.00
14.44
10.58
6.59
2.61
-1.22
-4.86
-8.25
-11.36
-14.14
-16.73
-19.42
-22.61
-26.69
-31.70
-37.38
-43.06
-47.83
-50.74
-50.94
-47.91
-41.60
-32.56
-21.83
-10.75
-0.54
8.05
14.87
20.20
24.50
28.06
31.03
33.45
35.44
37.22
39.01
40.83
42.48
43.54
43.57
42.41
40.14
37.20
34.08
31.14
28.45
25.86
23.02
19.70
15.92
11.89
7.92
4.21
0.67
-2.95
-6.91
-11.27
-15.81
-20.23
-24.36
-28.29
-32.42
-37.08
-42.34
-47.75
-52.36
-55.00
-54.67
-50.84
-43.62
-33.81
-22.59
-11.28
-1.00
7.60
14.37
19.47
23.20
25.82
27.44
28.23
28.41
28.34
28.43
28.97
29.98
31.26
32.39
33.00
32.92
32.16
30.96
29.64
28.41
27.36
26.30
24.79
22.42
18.88
14.22
8.90
3.54
-1.26
-5.22
-8.42
-11.22
-14.02
-17.13
-20.71
-24.81
-29.36
-34.17
-38.78
-42.50
-44.50
-44.09
-41.00
-35.44
-27.98
-19.36
-10.28
-1.35
6.89
14.00
19.53
23.28
25.29
25.88
25.65
25.29
25.36
26.18
27.74
29.67
31.50
32.68
32.85
31.96
30.20
27.90
25.35
22.66
19.72
16.36
12.45
8.06
3.50
-0.84
-4.63
-7.73
-10.24
-12.49
-14.89
-17.95
-22.04
-27.27
-33.42
-39.78
-45.22
-48.59
-48.96
-46.05
-40.34
-32.89
-24.93
-17.40
-10.66
-4.57
1.27
7.06
12.59
17.29
20.49
21.85
21.57
20.38
19.19
18.71
19.12
20.10
21.09
21.62
21.60
21.27
20.92
20.62
20.07
18.68
15.96
11.82
6.73
1.51
-2.93
-6.17
-8.28
-9.77
-11.36
-13.57
-16.73
-20.98
-26.22
-32.16
-38.19
-43.34
-46.44
-46.51
-43.06
-36.45
-27.68
-18.07
-8.82
-0.70
6.06
11.53
15.99
19.66
22.60
24.76
26.08
26.60
26.56
26.38
26.46
27.05
28.07
29.02
29.33
28.56
26.72
24.33
22.07
20.41
19.37
18.40
16.79
14.06
10.16
5.52
0.84
-3.30
-6.57
-8.97
-10.85
-12.61
-14.59
-17.11
-20.30
-24.16
-28.64
-33.65
-38.98
-44.16
-48.37
-50.49
-49.44
-44.60
-36.35
-25.90
-14.98
-5.18
2.58
8.22
12.20
15.14
17.48
19.35
20.83
21.98
22.90
23.71
24.41
24.95
25.33
25.68
26.19
27.00
27.89
28.46
28.31
27.25
25.48
23.40
21.23
18.89
16.01
12.18
7.42
2.19
-2.76
-6.75
-9.59
-11.65
-13.58
-16.02
-19.27
-23.27
-27.76
-32.59
-37.60
-42.55
-46.96
-50.06
-51.01
-49.19
-44.47
-37.37
-28.84
-19.95
-11.60
-4.27
1.94
7.15
11.57
15.29
18.33
20.55
21.80
22.02
21.41
20.41
19.65
19.74
20.89
22.83
24.92
26.35
26.61
25.75
24.26
22.80
21.70
20.77
19.38
16.84
12.92
7.96
2.75
-1.89
-5.47
-8.06
-10.10
-12.03
-14.13
-16.47
-19.15
-22.37
-26.37
-31.16
-36.21
-40.52
-42.81
-42.09
-38.00
-30.97
-22.08
-12.64
-3.77
3.83
9.92
14.62
18.15
20.74
22.48
23.44
23.69
23.38
22.84
22.37
22.13
22.11
22.06
21.75
21.12
20.27
19.45
18.83
18.33
17.74
16.68
14.90
12.39
9.41
6.36
3.56
1.16
-0.99
-3.16
-5.66
-8.65
-12.10
-15.93
-20.12
-24.71
-29.80
-35.31
-40.73
-45.28
-48.02
-48.17
-45.49
-40.27
-33.18
-25.14
-16.91
-9.05
-1.93
4.28
9.46
13.47
16.28
17.99
18.82
19.18
19.45
19.91
20.61
21.36
21.82
21.72
20.87
19.30
17.27
15.10
13.15
11.68
10.67
9.91
8.94
7.25
4.45
0.55
-4.07
-8.64
-12.34
-14.70
-15.85
-16.63
-18.22
-21.64
-27.21
-34.21
-41.12
-46.19
-48.02
-46.15
-41.13
-34.10
-26.35
-18.89
-12.16
-6.16
-0.66
4.55
9.46
13.86
17.43
19.93
21.33
21.94
22.13
22.22
22.30
22.24
21.88
21.25
20.53
19.95
19.57
19.07
18.07
16.33
13.93
11.35
9.14
7.53
6.35
5.03
2.99
-0.01
-3.70
-7.54
-10.89
-13.58
-15.83
-18.23
-21.47
-25.93
-31.45
-37.36
-42.60
-46.05
-46.87
-44.79
-40.12
-33.52
-25.77
-17.59
-9.50
-1.86
5.06
11.01
15.82
19.37
21.72
23.13
23.88
24.28
24.53
24.64
24.61
24.36
23.84
23.04
22.04
20.85
19.53
18.11
16.57
14.89
12.96
10.66
7.88
4.55
0.76
-3.23
-7.12
-10.62
-13.60
-16.22
-18.69
-21.22
-23.94
-26.92
-30.23
-33.99
-38.12
-42.20
-45.51
-47.07
-46.05
-42.14
-35.69
-27.57
-18.87
-10.47
-2.82
4.08
10.43
16.29
21.56
25.88
28.94
30.68
31.44
31.81
32.45
33.76
35.78
38.26
40.82
43.09
44.85
46.01
46.53
46.38
45.53
43.90
41.40
37.93
33.54
28.40
22.79
17.06
11.42
5.87
0.29
-5.50
-11.53
-17.68
-23.79
-29.76
-35.44
-40.63
-44.89
-47.53
-47.98
-45.93
-41.59
-35.62
-28.85
-22.02
-15.60
-9.78
-4.65
-0.38
2.79
4.71
5.45
5.47
5.46
6.00
7.29
8.96
10.22
10.31
8.87
6.15
2.90
-0.08
-2.32
-3.90
-5.40
-7.53
-10.68
-14.78
-19.27
-23.45
-26.75
-29.00
-30.39
-31.30
-32.08
-32.92
-33.86
-34.80
-35.58
-35.90
-35.37
-33.53
-30.02
-24.76
-18.09
-10.60
-3.06
3.88
9.78
14.46
17.93
20.33
21.75
22.21
21.65
20.01
17.34
13.87
9.97
6.09
2.62
-0.20
-2.24
-3.44
-3.78
-3.29
-2.18
-0.89
0.15
0.64
0.59
0.37
0.38
0.84
1.68
2.57
3.26
3.66
3.86
3.88
3.47
2.18
-0.32
-3.79
-7.24
-9.12
-7.89
-2.87
5.49
15.68
25.86
34.62
41.50
46.88
51.54
56.04
60.39
64.18
66.84
68.15
68.40
68.25
68.44
69.44
71.23
73.33
75.09
75.87
75.43
73.94
71.80
69.46
67.08
64.46
61.09
56.47
50.31
42.77
34.38
25.77
17.34
9.04
0.53
-8.66
-18.81
-29.94
-41.76
-53.94
-66.38
-79.12
-92.27
-105.43
-117.62
-127.45
-133.59
-135.19
-132.17
-125.43
-116.54
-107.30
-98.91
-91.92
-86.34
-82.32
-79.84
-78.83
-79.12
-80.35
-82.06
-83.30
-83.21
-81.51
-79.17
-77.14
-75.84
-75.00
-73.83
-71.81
-68.45
-63.75
-58.26
-53.33
-49.09
-44.53
-38.05
-28.08
-14.16
4.10
26.96
56.80
90.81
122.49
144.99
154.96
156.05
151.13
142.72
133.36
125.33
117.88
111.64
107.31
105.02
103.87
101.39
95.29
84.18
67.92
47.51
25.76
5.81
-10.08
-21.39
-29.57
-36.15
-41.92
-46.78
-50.33
-51.90
-51.44
-49.68
-47.79
-46.95
-47.27
-48.03
-48.26
-47.49
-45.76
-43.63
-41.91
-41.37
-42.52
-45.27
-49.16
-53.52
-57.67
-60.92
-62.59
-62.12
-59.06
-53.27
-44.96
-34.68
-23.33
-12.00
-1.61
7.25
14.42
20.07
24.47
27.78
29.94
30.93
30.79
29.88
28.77
28.06
28.12
28.88
29.90
30.59
30.46
29.19
26.73
23.12
18.42
12.77
6.41
-0.17
-6.30
-11.36
-15.07
-17.64
-19.85
-22.69
-26.82
-32.27
-38.33
-43.85
-47.61
-48.70
-46.65
-41.35
-32.87
-21.39
-7.31
8.63
25.33
41.49
55.76
66.93
74.27
77.50
77.01
73.90
69.82
66.65
65.99
68.71
74.52
81.86
88.05
90.07
85.52
73.58
55.50
34.29
13.60
-3.51
-15.64
-23.25
-27.86
-31.08
-33.86
-36.42
-38.84
-41.51
-45.10
-50.13
-56.31
-62.18
-65.72
-65.23
-60.00
-50.71
-39.05
-26.91
-15.74
-6.13
2.00
9.06
15.40
21.06
25.82
29.45
31.88
33.34
34.36
35.54
37.22
39.39
41.59
43.14
43.55
42.68
40.82
38.53
36.23
33.98
31.51
28.39
24.38
19.59
14.44
9.50
5.18
1.55
-1.69
-5.01
-8.92
-13.71
-19.45
-25.86
-32.39
-38.24
-42.52
-44.31
-42.98
-38.40
-30.94
-21.58
-11.54
-1.91
6.59
13.72
19.59
24.32
27.92
30.35
31.63
32.09
32.27
32.86
34.26
36.48
39.05
41.28
42.61
42.84
42.14
40.82
39.12
37.08
34.56
31.48
27.83
23.80
19.54
15.18
10.79
6.40
2.15
-1.80
-5.29
-8.43
-11.65
-15.54
-20.56
-26.65
-33.17
-39.05
-43.14
-44.57
-43.08
-38.82
-32.27
-24.10
-15.00
-5.81
2.62
9.56
14.57
17.70
19.38
20.14
20.49
20.70
20.89
21.19
21.80
22.88
24.49
26.43
28.23
29.36
29.50
28.65
27.14
25.39
23.71
22.15
20.46
18.37
15.73
12.64
9.38
6.20
3.22
0.34
-2.57
-5.59
-8.55
-11.24
-13.65
-16.08
-19.05
-23.10
-28.33
-34.28
-40.01
-44.39
-46.50
-45.86
-42.48
-36.73
-29.33
-21.06
-12.82
-5.31
1.03
6.03
9.80
12.48
14.16
14.88
14.71
13.91
12.99
12.48
12.88
14.38
16.78
19.59
22.20
23.99
24.59
23.92
22.17
19.82
17.37
15.16
13.30
11.60
9.76
7.57
5.03
2.33
-0.26
-2.61
-4.81
-7.04
-9.51
-12.30
-15.24
-18.19
-21.07
-23.89
-26.73
-29.38
-31.28
-31.71
-30.04
-26.12
-20.49
-14.12
-7.99
-2.74
1.50
4.89
7.58
9.50
10.35
9.92
8.39
6.33
4.57
3.81
4.28
5.69
7.42
8.82
9.55
9.66
9.43
9.17
8.99
8.75
8.12
6.80
4.60
1.63
-1.82
-5.39
-8.62
-11.19
-12.96
-14.10
-15.17
-16.85
-19.67
-23.70
-28.35
-32.58
-35.32
-35.83
-34.00
-30.24
-25.21
-19.49
-13.52
-7.52
-1.85
3.05
6.69
8.69
9.11
8.42
7.38
6.66
6.67
7.38
8.36
9.15
9.36
8.93
8.01
6.84
5.63
4.49
3.45
2.59
1.87
1.15
0.23
-1.20
-3.29
-5.93
-8.84
-11.59
-13.93
-15.88
-17.76
-19.96
-22.78
-26.24
-29.92
-33.04
-34.67
-34.01
-30.72
-25.08
-18.01
-10.63
-3.90
1.71
6.16
9.65
12.18
13.56
13.61
12.38
10.40
8.49
7.34
7.20
7.85
8.68
9.22
9.35
9.22
9.09
8.94
8.57
7.62
5.96
3.77
1.39
-0.93
-3.16
-5.47
-8.11
-11.10
-14.30
-17.48
-20.45
-23.24
-25.99
-28.63
-30.82
-31.93
-31.22
-28.36
-23.49
-17.24
-10.44
-3.88
1.96
6.82
10.64
13.44
15.14
15.71
15.19
13.70
11.60
9.36
7.48
6.36
6.24
7.04
8.49
10.13
11.43
12.03
11.71
10.43
8.37
5.77
2.89
0.01
-2.71
-5.22
-7.60
-10.10
-12.94
-16.23
-19.95
-23.95
-28.01
-31.90
-35.26
-37.58
-38.26
-36.73
-32.80
-26.79
-19.41
-11.60
-4.12
2.53
8.08
12.33
14.96
15.77
14.81
12.69
10.38
8.90
8.86
10.19
12.28
14.33
15.70
16.18
15.93
15.29
14.53
13.71
12.74
11.45
9.62
7.17
4.16
0.71
-2.91
-6.36
-9.37
-11.88
-14.10
-16.53
-19.59
-23.49
-27.95
-32.25
-35.50
-37.00
-36.41
-33.84
-29.61
-24.06
-17.51
-10.24
-2.71
4.40
10.33
14.50
16.70
17.14
16.37
14.98
13.53
12.47
12.01
12.25
13.12
14.41
15.86
17.11
17.91
18.07
17.43
15.87
13.39
10.01
5.92
1.41
-3.13
-7.33
-10.97
-13.96
-16.34
-18.28
-20.08
-22.11
-24.74
-28.23
-32.41
-36.73
-40.19
-41.63
-40.18
-35.54
-28.16
-19.18
-9.94
-1.60
5.16
10.29
14.06
16.78
18.62
19.59
19.73
19.30
18.78
18.63
19.13
20.12
21.21
21.99
22.25
22.04
21.58
20.97
20.12
18.80
16.73
13.86
10.33
6.49
2.68
-0.89
-4.28
-7.69
-11.37
-15.62
-20.50
-25.89
-31.42
-36.37
-39.88
-41.08
-39.36
-34.70
-27.67
-19.20
-10.46
-2.37
4.52
10.01
14.18
17.20
19.21
20.40
21.02
21.34
21.68
22.20
22.95
23.90
24.86
25.62
26.06
26.07
25.62
24.74
23.44
21.64
19.31
16.38
13.00
9.43
6.00
2.98
0.39
-1.98
-4.50
-7.54
-11.34
-15.94
-21.16
-26.60
-31.62
-35.43
-37.19
-36.25
-32.45
-26.16
-18.25
-9.86
-1.95
4.91
10.56
15.18
18.98
22.06
24.44
26.09
27.09
27.60
27.76
27.70
27.57
27.42
27.38
27.53
27.73
27.73
27.29
26.26
24.79
23.06
21.11
18.78
15.81
12.10
7.95
4.00
0.86
-1.28
-2.78
-4.37
-6.71
-10.13
-14.45
-19.26
-24.18
-28.87
-33.00
-36.05
-37.31
-36.10
-32.15
-25.79
-17.92
-9.75
-2.32
3.81
8.66
12.56
15.93
18.95
21.59
23.70
25.14
26.03
26.62
27.22
28.06
29.11
30.22
31.13
31.57
31.43
30.77
29.66
28.29
26.84
25.36
23.87
22.37
20.78
19.02
16.98
14.51
11.56
8.11
4.32
0.43
-3.33
-6.75
-9.76
-12.41
-14.86
-17.36
-20.28
-23.87
-28.19
-32.81
-36.92
-39.42
-39.42
-36.53
-31.15
-24.23
-16.89
-10.04
-4.20
0.55
4.28
7.13
9.22
10.65
11.61
12.40
13.27
14.39
15.82
17.42
19.04
20.55
21.75
22.58
23.01
23.10
22.98
22.73
22.30
21.52
20.09
17.89
15.05
12.00
9.22
7.12
5.63
4.39
2.90
0.81
-1.91
-4.89
-7.76
-10.26
-12.42
-14.47
-16.69
-19.25
-22.23
-25.57
-29.05
-32.41
-35.15
-36.62
-36.24
-33.63
-28.87
-22.52
-15.43
-8.55
-2.63
1.91
5.01
6.89
7.96
8.61
9.19
10.00
11.17
12.80
14.79
16.92
18.85
20.30
21.12
21.42
21.40
21.25
21.07
20.76
20.12
19.02
17.39
15.36
13.15
11.01
9.12
7.61
6.47
5.58
4.65
3.36
1.50
-0.91
-3.60
-6.23
-8.56
-10.61
-12.52
-14.56
-16.91
-19.61
-22.71
-26.37
-30.64
-35.37
-39.91
-43.16
-43.93
-41.45
-35.91
-28.42
-20.64
-13.99
-9.10
-5.66
-2.83
0.12
3.41
6.67
9.33
11.02
11.90
12.45
13.24
14.59
16.42
18.38
20.05
21.12
21.54
21.41
20.95
20.38
19.90
19.54
19.18
18.62
17.72
16.47
15.04
13.72
12.66
11.85
11.08
10.08
8.65
6.70
4.27
1.48
-1.53
-4.62
-7.64
-10.52
-13.24
-15.85
-18.45
-21.04
-23.54
-25.92
-28.34
-31.07
-34.39
-38.25
-42.06
-44.80
-45.42
-43.30
-38.65
-32.36
-25.62
-19.47
-14.35
-10.21
-6.74
-3.65
-0.94
1.24
2.69
3.41
3.68
4.05
5.03
6.98
9.90
13.36
16.72
19.42
21.07
21.69
21.58
21.13
20.61
20.06
19.31
18.27
16.95
15.59
14.50
13.82
13.37
12.78
11.59
9.54
6.75
3.59
0.56
-2.00
-4.04
-5.72
-7.30
-8.95
-10.73
-12.61
-14.60
-16.81
-19.48
-22.78
-26.64
-30.65
-34.10
-36.17
-36.28
-34.19
-30.15
-24.79
-18.80
-12.75
-7.09
-2.04
2.21
5.45
7.49
8.37
8.31
7.82
7.47
7.62
8.39
9.59
10.92
12.11
13.12
13.93
14.59
14.97
14.87
14.18
12.82
11.07
9.27
7.71
6.55
5.71
5.00
4.24
3.39
2.41
1.40
0.41
-0.57
-1.61
-2.86
-4.44
-6.39
-8.65
-11.12
-13.63
-16.08
-18.47
-20.89
-23.50
-26.35
-29.48
-32.72
-35.74
-37.97
-38.75
-37.46
-33.72
-27.72
-20.11
-11.96
-4.38
1.89
6.57
9.81
12.02
13.54
14.57
15.27
15.84
16.57
17.82
19.79
22.39
25.35
28.30
30.90
32.96
34.36
35.03
34.89
33.94
32.42
30.82
29.82
29.98
31.41
33.65
35.80
36.85
36.25
34.23
31.71
29.98
30.01
32.03
35.36
38.70
40.58
39.88
35.99
29.00
19.77
9.88
1.62
-2.60
-1.10
6.26
17.68
29.88
39.27
43.29
41.18
34.00
23.70
12.11
0.27
-11.68
-24.14
-37.75
-53.20
-71.15
-92.07
-115.84
-141.41
-166.52
-188.20
-203.48
-210.37
-208.53
-199.26
-184.89
-167.76
-149.42
-130.33
-110.15
-88.27
-64.28
-38.09
-9.78
20.40
52.00
83.93
114.08
139.57
157.39
165.54
164.01
155.04
142.06
128.52
116.65
106.91
98.76
91.62
85.65
81.74
80.46
81.01
81.02
77.35
67.76
52.41
33.88
16.08
2.26
-6.52
-11.58
-15.64
-21.20
-29.22
-38.87
-48.33
-55.97
-61.23
-64.90
-68.46
-73.52
-81.09
-91.11
-102.33
-112.97
-121.44
-126.79
-129.01
-128.87
-127.57
-126.14
-124.96
-123.53
-120.68
-115.25
-106.09
-92.40
-74.11
-52.22
-28.86
-6.93
10.85
22.69
28.00
28.35
26.99
27.71
33.46
45.27
62.22
82.50
104.37
126.52
147.35
164.35
175.34
179.46
176.84
168.01
154.39
140.93
128.68
118.26
109.71
102.43
95.55
88.26
79.47
69.59
59.41
48.82
37.63
25.33
11.54
-3.62
-19.56
-35.13
-48.89
-59.75
-67.51
-72.15
-73.80
-72.68
-69.09
-63.65
-57.29
-50.99
-45.69
-42.16
-40.46
-40.11
-40.41
-40.84
-41.21
-41.49
-41.59
-41.23
-40.05
-37.76
-34.19
-29.58
-24.41
-19.24
-14.51
-10.47
-7.27
-5.13
-4.28
-4.86
-6.99
-10.58
-15.35
-21.03
-27.40
-34.46
-42.30
-50.82
-59.36
-66.78
-71.62
-72.64
-69.37
-62.26
-52.56
-41.82
-31.36
-21.95
-13.80
-6.76
-0.58
4.83
9.45
13.19
15.96
17.81
18.86
19.35
19.60
19.87
20.36
21.12
22.05
22.95
23.60
23.75
23.23
21.91
19.74
16.79
13.16
9.06
4.73
0.38
-3.82
-7.80
-11.75
-16.02
-20.99
-26.89
-33.44
-39.82
-44.83
-47.19
-46.08
-41.40
-33.79
-24.35
-14.30
-4.52
4.44
12.33
19.06
24.43
28.21
30.23
30.62
29.84
28.72
28.14
28.62
30.17
32.25
34.06
34.99
34.83
33.84
32.55
31.35
30.28
29.03
27.08
24.12
20.15
15.52
10.73
6.21
2.13
-1.62
-5.37
-9.39
-13.93
-19.19
-25.29
-32.30
-40.06
-47.98
-54.92
-59.50
-60.41
-57.07
-49.75
-39.52
-27.83
-16.07
-5.22
4.29
12.45
19.46
25.51
30.61
34.59
37.17
38.37
38.60
38.71
39.65
41.96
45.46
49.55
53.61
57.45
61.16
64.44
66.21
64.68
58.19
46.33
30.47
13.43
-1.72
-12.86
-19.62
-23.00
-24.57
-25.64
-26.87
-28.61
-31.18
-34.97
-40.23
-46.64
-53.14
-58.13
-60.05
-57.74
-51.05
-40.78
-28.50
-16.03
-4.83
4.37
11.43
16.73
20.74
23.73
25.86
27.20
27.90
28.31
28.80
29.69
31.05
32.66
34.09
34.95
35.04
34.47
33.58
32.74
32.18
31.79
31.14
29.62
26.85
22.85
18.16
13.66
10.02
7.44
5.52
3.43
0.33
-4.17
-10.01
-16.70
-23.58
-29.90
-34.89
-37.72
-37.67
-34.27
-27.78
-19.07
-9.41
-0.07
8.17
15.12
20.89
25.67
29.41
31.94
33.23
33.59
33.61
33.94
34.98
36.64
38.57
40.33
41.65
42.53
43.07
43.25
42.95
41.93
40.01
37.30
34.07
30.73
27.63
24.87
22.29
19.65
16.62
13.04
8.96
4.60
0.25
-3.83
-7.58
-11.07
-14.57
-18.44
-22.91
-28.04
-33.53
-38.71
-42.60
-44.16
-42.63
-37.87
-30.43
-21.38
-11.93
-3.06
4.76
11.37
16.76
20.92
23.82
25.52
26.25
26.46
26.57
26.89
27.48
28.28
29.19
30.15
31.17
32.10
32.73
32.81
32.14
30.79
28.95
26.85
24.64
22.37
19.96
17.35
14.56
11.72
9.02
6.60
4.49
2.56
0.53
-1.84
-4.69
-8.00
-11.53
-14.96
-18.16
-21.19
-24.34
-27.93
-31.96
-35.99
-39.16
-40.55
-39.47
-35.85
-30.16
-23.24
-15.98
-9.11
-3.22
1.20
3.82
4.64
4.11
3.08
2.49
2.95
4.59
6.97
9.51
11.85
13.84
15.56
17.05
18.17
18.69
18.44
17.46
15.98
14.23
12.31
10.22
7.89
5.48
3.23
1.39
0.08
-0.84
-1.75
-3.08
-5.14
-8.02
-11.58
-15.58
-19.81
-24.12
-28.37
-32.35
-35.58
-37.44
-37.30
-34.86
-30.27
-24.18
-17.53
-11.26
-6.00
-1.96
0.97
3.16
4.95
6.58
8.11
9.47
10.51
11.23
11.71
12.15
12.75
13.56
14.41
15.00
15.04
14.36
13.07
11.45
9.82
8.45
7.32
6.23
4.87
2.90
0.22
-3.03
-6.43
-9.50
-11.84
-13.37
-14.35
-15.19
-16.39
-18.29
-21.01
-24.48
-28.44
-32.47
-36.06
-38.51
-39.24
-37.86
-34.37
-29.15
-22.87
-16.25
-9.99
-4.55
-0.18
3.05
5.32
6.90
8.08
9.04
9.84
10.43
10.77
10.94
11.12
11.52
12.10
12.65
12.79
12.24
11.00
9.37
7.80
6.65
5.98
5.43
4.47
2.71
0.10
-2.95
-5.79
-7.87
-9.06
-9.67
-10.30
-11.49
-13.49
-16.24
-19.40
-22.72
-26.04
-29.27
-32.23
-34.50
-35.43
-34.46
-31.26
-26.01
-19.38
-12.38
-5.99
-0.96
2.44
4.43
5.50
6.26
7.12
8.15
9.21
10.02
10.47
10.64
10.82
11.30
12.17
13.25
14.11
14.46
14.15
13.44
12.76
12.35
12.21
11.96
11.12
9.43
7.04
4.40
2.01
0.05
-1.70
-3.65
-6.16
-9.19
-12.39
-15.37
-17.92
-20.20
-22.56
-25.29
-28.27
-31.03
-32.83
-32.95
-31.11
-27.42
-22.41
-16.82
-11.33
-6.35
-2.02
1.83
5.34
8.51
11.12
12.84
13.44
13.05
12.12
11.24
10.92
11.28
12.13
13.08
13.71
13.85
13.52
12.90
12.24
11.66
11.11
10.44
9.45
7.99
6.12
4.02
1.93
0.04
-1.65
-3.34
-5.23
-7.49
-10.10
-12.88
-15.72
-18.53
-21.30
-24.02
-26.48
-28.25
-28.86
-27.93
-25.34
-21.38
-16.52
-11.40
-6.58
-2.29
1.37
4.54
7.31
9.59
11.14
11.69
11.14
9.80
8.33
7.45
7.61
8.84
10.62
12.27
13.25
13.35
12.80
11.99
11.20
10.45
9.52
8.14
6.22
3.87
1.39
-0.86
-2.75
-4.41
-6.15
-8.34
-11.16
-14.50
-18.11
-21.67
-24.99
-28.06
-30.82
-33.00
-34.12
-33.60
-31.03
-26.51
-20.66
-14.41
-8.70
-4.07
-0.58
2.03
4.13
5.79
6.87
7.14
6.53
5.35
4.17
3.57
3.82
4.84
6.24
7.56
8.52
9.03
9.15
8.85
8.03
6.55
4.38
1.67
-1.22
-3.99
-6.46
-8.66
-10.79
-13.07
-15.57
-18.28
-21.07
-23.88
-26.69
-29.42
-31.89
-33.71
-34.24
-32.92
-29.48
-24.10
-17.44
-10.44
-3.91
1.56
5.78
8.87
11.06
12.52
13.35
13.61
13.39
12.90
12.39
12.11
12.14
12.30
12.31
11.87
10.84
9.40
7.84
6.45
5.36
4.40
3.26
1.78
-0.11
-2.26
-4.51
-6.82
-9.26
-12.01
-15.28
-19.19
-23.71
-28.65
-33.52
-37.58
-39.91
-39.64
-36.37
-30.29
-22.24
-13.46
-5.12
1.99
7.53
11.56
14.35
16.13
17.07
17.31
17.04
16.55
16.22
16.23
16.59
17.08
17.38
17.34
16.96
16.39
15.79
15.17
14.37
13.22
11.65
9.72
7.67
5.56
3.34
0.87
-2.05
-5.42
-9.18
-13.24
-17.59
-22.18
-26.82
-30.93
-33.64
-34.05
-31.51
-26.02
-18.21
-9.18
-0.22
7.59
13.57
17.50
19.58
20.34
20.41
20.38
20.59
21.12
21.87
22.70
23.52
24.31
25.00
25.44
25.45
24.95
24.00
22.88
21.78
20.70
19.42
17.58
15.01
11.88
8.59
5.65
3.34
1.52
-0.25
-2.52
-5.75
-10.06
-15.26
-20.85
-26.10
-30.20
-32.33
-31.96
-28.97
-23.79
-17.26
-10.45
-4.22
1.05
5.40
9.23
12.87
16.30
19.08
20.70
20.83
19.76
18.26
17.21
17.20
18.21
19.67
20.86
21.28
20.89
20.03
19.08
18.17
17.13
15.57
13.21
10.09
6.53
3.03
0.05
-2.26
-4.00
-5.44
-6.94
-8.68
-10.73
-13.09
-15.68
-18.41
-21.15
-23.63
-25.42
-25.98
-24.72
-21.35
-16.05
-9.43
-2.47
3.87
9.01
12.76
15.37
17.30
18.87
20.22
21.35
22.15
22.65
22.97
23.24
23.58
23.90
24.10
24.05
23.68
22.99
22.06
20.98
19.84
18.71
17.52
16.15
14.45
12.24
9.50
6.38
3.16
0.23
-2.14
-3.93
-5.40
-7.02
-9.20
-12.19
-15.91
-20.00
-23.92
-27.16
-29.28
-29.96
-29.05
-26.45
-22.20
-16.60
-10.13
-3.49
2.49
7.20
10.33
11.90
12.30
12.01
11.47
10.91
10.37
9.83
9.41
9.38
10.04
11.58
13.77
16.14
18.05
19.00
18.93
18.12
17.02
15.96
15.02
13.89
12.24
9.83
6.70
3.27
0.12
-2.24
-3.56
-4.02
-4.15
-4.61
-5.99
-8.50
-12.01
-16.12
-20.31
-24.03
-26.79
-28.11
-27.53
-24.91
-20.39
-14.55
-8.22
-2.11
3.27
7.80
11.50
14.40
16.46
17.63
17.99
17.76
17.32
16.98
16.92
17.17
17.71
18.47
19.39
20.22
20.67
20.44
19.39
17.68
15.69
13.79
12.21
10.89
9.61
8.20
6.61
4.95
3.42
2.08
0.92
-0.14
-1.26
-2.51
-3.94
-5.66
-7.75
-10.32
-13.38
-16.77
-20.16
-23.07
-24.93
-25.29
-23.93
-20.93
-16.60
-11.49
-6.16
-1.15
3.09
6.24
8.12
8.80
8.59
7.89
7.10
6.62
6.61
7.11
8.15
9.61
11.36
13.09
14.40
14.89
14.37
13.01
11.32
9.79
8.78
8.23
7.77
6.98
5.61
3.70
1.50
-0.65
-2.54
-4.11
-5.47
-6.80
-8.24
-9.87
-11.76
-13.92
-16.35
-18.97
-21.73
-24.50
-27.11
-29.29
-30.71
-30.99
-29.87
-27.41
-23.87
-19.71
-15.45
-11.43
-7.76
-4.46
-1.54
0.93
2.76
3.86
4.27
4.22
4.06
4.08
4.42
5.00
5.63
6.16
6.62
7.04
7.44
7.74
7.67
7.01
5.70
3.90
1.99
0.28
-1.15
-2.45
-3.98
-6.02
-8.51
-11.12
-13.50
-15.52
-17.43
-19.64
-22.42
-25.61
-28.62
-30.58
-30.77
-28.86
-25.01
-19.87
-14.18
-8.68
-3.93
-0.16
2.74
4.99
6.93
8.68
10.20
11.30
11.85
11.98
12.05
12.39
13.12
14.05
14.76
14.89
14.37
13.38
12.23
11.23
10.40
9.50
8.21
6.15
3.22
-0.38
-4.13
-7.32
-9.46
-10.40
-10.52
-10.57
-11.31
-13.19
-16.21
-19.98
-23.88
-27.34
-29.83
-30.91
-30.24
-27.59
-23.07
-17.22
-10.83
-4.77
0.33
4.24
7.07
9.05
10.35
11.06
11.26
11.24
11.45
12.34
14.06
16.31
18.41
19.59
19.36
17.78
15.36
12.83
10.81
9.64
9.30
9.53
9.94
10.10
9.63
8.24
5.84
2.60
-1.09
-4.76
-7.94
-10.45
-12.33
-13.85
-15.54
-17.88
-21.21
-25.56
-30.44
-35.01
-38.23
-39.14
-37.29
-32.85
-26.49
-19.24
-12.15
-5.98
-1.11
2.41
4.84
6.48
7.64
8.59
9.41
10.22
11.14
12.20
13.37
14.53
15.40
15.76
15.60
15.11
14.67
14.60
14.96
15.55
15.94
15.69
14.62
12.75
10.31
7.60
4.79
2.01
-0.62
-3.04
-5.19
-7.10
-8.93
-11.00
-13.61
-16.95
-21.01
-25.46
-29.84
-33.44
-35.55
-35.58
-33.15
-28.28
-21.44
-13.45
-5.34
1.93
7.71
11.73
14.11
15.24
15.55
15.40
15.03
14.54
13.98
13.51
13.32
13.68
14.79
16.53
18.52
20.16
20.88
20.34
18.73
16.57
14.50
12.98
12.03
11.33
10.40
8.85
6.66
4.02
1.30
-1.29
-3.73
-6.27
-9.20
-12.78
-17.03
-21.76
-26.57
-30.95
-34.40
-36.40
-36.58
-34.74
-30.97
-25.56
-19.01
-11.88
-4.63
2.32
8.71
14.19
18.44
21.17
22.28
21.90
20.53
18.79
17.33
16.64
16.85
17.85
19.28
20.69
21.64
21.86
21.16
19.55
17.13
14.06
10.56
6.90
3.34
0.16
-2.47
-4.64
-6.67
-8.97
-11.90
-15.44
-19.25
-22.71
-25.33
-27.05
-28.31
-29.77
-31.88
-34.44
-36.47
-36.65
-33.85
-27.71
-18.85
-8.51
2.01
11.69
20.04
26.82
31.77
34.54
34.76
32.44
28.27
23.49
19.52
17.43
17.48
19.06
21.12
22.51
22.56
21.22
18.92
16.33
14.00
12.10
10.44
8.54
5.87
2.09
-2.88
-8.92
-15.70
-22.96
-30.53
-38.12
-45.29
-51.24
-55.06
-56.31
-55.38
-53.54
-52.23
-51.85
-50.90
-46.14
-33.90
-11.84
19.58
57.07
95.58
129.89
156.06
171.78
176.11
168.93
150.72
122.85
88.15
50.85
16.01
-11.71
-29.36
-36.50
-35.06
-28.63
-21.08
-15.35
-12.75
-12.93
-14.62
-16.61
-18.36
-20.15
-22.63
-26.32
-31.20
-36.73
-42.19
-47.05
-51.21
-54.85
-58.10
-60.73
-62.05
-61.12
-57.27
-50.43
-41.35
-31.34
-21.83
-13.97
-8.19
-4.17
-1.16
1.68
4.79
7.99
10.78
12.55
12.99
12.24
10.66
8.71
6.65
4.56
2.53
0.83
-0.14
-0.00
1.17
2.72
3.56
2.54
-0.95
-6.74
-13.99
-21.49
-28.16
-33.33
-36.78
-38.54
-38.65
-36.93
-33.05
-26.79
-18.29
-8.19
2.46
12.57
21.35
28.53
34.32
39.10
43.03
45.92
47.25
46.52
43.71
39.40
34.58
30.32
27.07
24.62
22.20
18.88
14.12
8.07
1.37
-5.13
-10.83
-15.66
-20.04
-24.67
-30.30
-37.35
-45.86
-55.35
-64.72
-72.39
-76.57
-75.77
-69.41
-58.18
-43.86
-28.80
-15.15
-4.14
3.99
9.80
14.16
17.75
20.96
23.88
26.46
28.55
29.90
30.23
29.35
27.36
24.72
22.17
20.44
19.90
20.43
21.43
22.09
21.80
20.19
17.24
13.11
8.02
2.20
-4.14
-10.75
-17.39
-23.87
-30.03
-35.67
-40.49
-44.05
-45.86
-45.44
-42.53
-37.13
-29.61
-20.55
-10.69
-0.85
8.14
15.62
21.11
24.55
26.24
26.74
26.71
26.60
26.54
26.47
26.29
25.98
25.75
25.72
25.85
25.81
25.06
23.18
20.14
16.31
12.38
8.94
6.20
3.95
1.71
-1.00
-4.39
-8.37
-12.81
-17.61
-22.77
-28.22
-33.62
-38.27
-41.22
-41.51
-38.64
-32.76
-24.63
-15.44
-6.38
1.65
8.26
13.52
17.73
21.12
23.75
25.56
26.47
26.70
26.70
27.01
27.98
29.44
30.83
31.50
31.06
29.65
27.82
26.12
24.82
23.73
22.35
20.25
17.30
13.72
9.96
6.45
3.37
0.68
-1.86
-4.56
-7.64
-11.31
-15.72
-20.85
-26.47
-32.06
-36.89
-40.09
-41.00
-39.25
-34.94
-28.57
-20.80
-12.41
-4.08
3.54
9.88
14.58
17.52
18.99
19.62
20.18
21.29
23.28
25.94
28.72
30.91
31.88
31.40
29.79
27.71
26.00
25.29
25.76
27.08
28.65
29.77
30.01
29.27
27.66
25.36
22.44
18.85
14.58
9.79
4.80
0.10
-3.95
-7.27
-9.99
-12.56
-15.36
-18.70
-22.73
-27.42
-32.63
-38.06
-43.19
-47.24
-49.33
-48.69
-44.94
-38.30
-29.61
-19.98
-10.59
-2.30
4.50
9.84
14.07
17.50
20.40
22.83
24.71
26.01
26.92
27.74
28.84
30.38
32.20
33.85
34.88
35.02
34.37
33.26
32.10
31.10
30.22
29.18
27.71
25.67
23.15
20.43
17.78
15.40
13.32
11.42
9.51
7.44
5.13
2.64
0.12
-2.36
-4.83
-7.45
-10.44
-13.96
-18.06
-22.71
-27.80
-33.09
-38.21
-42.58
-45.42
-45.96
-43.68
-38.64
-31.47
-23.24
-15.08
-7.77
-1.60
3.52
7.80
11.35
14.06
15.83
16.75
17.17
17.63
18.62
20.30
22.55
24.96
27.07
28.55
29.22
29.06
28.29
27.17
25.98
24.96
24.06
23.03
21.47
19.07
15.88
12.29
8.96
6.45
4.97
4.28
3.87
3.18
1.85
-0.16
-2.71
-5.54
-8.42
-11.27
-14.13
-17.00
-19.82
-22.51
-25.02
-27.49
-30.20
-33.35
-36.90
-40.33
-42.72
-43.10
-40.73
-35.57
-28.26
-19.94
-11.90
-5.06
0.19
3.95
6.67
8.83
10.76
12.58
14.22
15.53
16.46
17.07
17.57
18.10
18.75
19.49
20.19
20.71
20.98
21.00
20.68
19.94
18.64
16.68
14.13
11.25
8.44
6.12
4.54
3.64
3.10
2.44
1.19
-0.85
-3.62
-6.80
-9.90
-12.61
-14.90
-16.98
-19.25
-22.04
-25.39
-29.15
-32.98
-36.54
-39.52
-41.58
-42.28
-41.21
-38.07
-32.90
-26.24
-18.89
-11.73
-5.46
-0.41
3.42
6.25
8.32
9.88
11.06
11.96
12.61
12.93
12.92
12.59
12.12
11.83
12.02
12.85
14.28
16.04
17.72
18.90
19.22
18.52
16.86
14.46
11.66
8.80
6.25
4.30
3.02
2.29
1.81
1.11
-0.18
-2.17
-4.81
-7.82
-10.95
-14.08
-17.19
-20.34
-23.55
-26.79
-30.00
-33.16
-36.24
-39.08
-41.27
-42.19
-41.24
-38.11
-33.02
-26.59
-19.67
-12.99
-7.03
-1.97
2.19
5.42
7.78
9.44
10.70
11.96
13.55
15.57
17.90
20.17
21.97
22.94
22.93
21.98
20.35
18.41
16.58
15.17
14.36
14.10
14.19
14.24
13.86
12.72
10.65
7.81
4.50
1.15
-1.86
-4.34
-6.35
-7.99
-9.40
-10.66
-11.79
-12.92
-14.32
-16.26
-18.97
-22.37
-26.10
-29.62
-32.29
-33.59
-33.13
-30.73
-26.37
-20.39
-13.41
-6.35
-0.14
4.61
7.76
9.71
11.18
12.67
14.34
15.87
16.76
16.78
16.13
15.33
15.02
15.47
16.48
17.52
18.04
17.82
17.07
16.19
15.50
15.08
14.72
14.09
12.96
11.27
9.14
6.82
4.52
2.38
0.50
-1.17
-2.70
-4.14
-5.56
-6.94
-8.30
-9.77
-11.55
-13.85
-16.88
-20.50
-24.30
-27.53
-29.29
-28.87
-26.00
-20.91
-14.32
-7.13
-0.13
6.20
11.82
16.95
21.87
26.67
31.18
35.02
37.84
39.56
40.48
41.26
42.59
44.98
48.47
52.71
57.07
60.96
63.88
65.53
65.66
64.15
61.29
58.08
56.04
56.69
60.34
65.35
68.30
65.27
53.74
34.11
9.78
-14.25
-33.61
-46.58
-54.70
-61.74
-71.93
-87.97
-110.28
-137.33
-166.59
-195.09
-219.60
-236.39
-241.66
-232.60
-208.65
-172.40
-129.03
-84.59
-44.01
-9.67
18.57
42.20
62.44
79.49
92.61
101.03
104.89
105.38
104.32
103.41
103.59
104.74
105.91
105.77
103.26
98.23
91.50
84.56
78.60
73.83
69.23
62.95
53.21
39.16
21.33
1.43
-18.22
-35.46
-48.73
-57.32
-61.32
-61.34
-58.25
-52.95
-46.13
-38.28
-29.70
-20.62
-11.38
-2.45
5.82
13.26
20.06
26.67
33.42
40.33
46.92
52.25
55.39
55.84
53.72
49.95
45.86
42.54
40.56
39.63
38.94
37.68
35.48
32.51
29.30
26.24
23.30
20.07
16.01
10.90
5.02
-1.02
-6.56
-11.13
-14.61
-17.11
-18.80
-19.97
-20.99
-22.26
-24.21
-26.94
-30.27
-33.78
-36.98
-39.46
-41.01
-41.45
-40.72
-38.88
-36.26
-33.49
-31.29
-30.15
-30.23
-31.28
-32.86
-34.72
-36.79
-39.28
-42.43
-46.32
-50.87
-55.77
-60.48
-64.34
-66.68
-67.04
-65.39
-62.02
-57.37
-51.69
-44.88
-36.51
-26.41
-14.87
-2.78
8.73
18.67
26.67
32.84
37.55
41.12
43.48
44.42
43.85
41.90
39.00
35.71
32.64
30.59
30.43
32.92
38.38
46.01
53.79
58.74
57.77
49.03
32.72
11.28
-11.28
-30.87
-44.69
-51.93
-53.59
-51.63
-48.09
-44.50
-41.76
-40.22
-39.78
-39.80
-39.15
-36.68
-31.95
-25.86
-20.61
-18.67
-21.25
-27.29
-33.52
-36.06
-32.41
-22.87
-10.37
0.95
7.90
9.55
7.26
3.57
0.64
-0.66
-0.59
0.09
1.18
3.28
7.24
13.38
20.86
27.86
32.46
33.68
31.93
28.84
26.29
25.48
26.39
27.99
28.92
28.35
26.28
23.34
20.40
18.08
16.55
15.78
15.47
15.14
14.10
11.54
6.91
0.28
-7.68
-15.87
-23.28
-29.38
-34.19
-38.03
-41.25
-44.00
-46.44
-48.71
-50.94
-52.89
-53.68
-51.86
-46.07
-35.88
-22.20
-7.26
6.27
16.11
20.75
19.61
12.82
1.38
-12.57
-25.60
-33.75
-33.72
-24.44
-7.86
11.55
28.57
39.29
42.69
40.64
36.64
33.95
34.03
36.22
38.51
38.68
35.36
28.49
18.98
8.20
-2.68
-12.99
-22.52
-31.20
-38.89
-45.20
-49.63
-51.85
-51.71
-49.35
-44.84
-38.14
-28.99
-17.19
-2.80
13.43
30.19
45.69
58.14
66.23
69.61
68.92
65.59
61.29
57.09
53.10
48.54
42.47
34.87
27.14
21.78
21.28
26.64
36.56
47.85
56.71
60.34
57.89
50.31
39.48
27.29
14.93
2.96
-8.32
-18.47
-26.76
-32.38
-34.99
-34.96
-33.59
-32.79
-34.40
-39.42
-47.51
-57.01
-65.64
-71.44
-73.46
-72.01
-68.30
-63.68
-59.02
-54.59
-50.28
-46.09
-42.46
-40.10
-39.70
-41.34
-44.25
-47.06
-48.23
-46.84
-42.84
-37.09
-30.91
-25.49
-21.44
-18.72
-16.77
-14.87
-12.52
-9.56
-6.25
-3.22
-1.14
-0.60
-1.80
-4.52
-8.10
-11.67
-14.43
-15.85
-15.85
-14.62
-12.61
-10.25
-7.98
-6.28
-5.61
-6.31
-8.43
-11.42
-14.19
-15.47
-14.23
-10.18
-3.96
3.27
10.24
16.10
20.65
24.11
26.79
28.92
30.43
31.18
31.14
30.40
29.20
27.85
26.57
25.52
24.77
24.30
24.11
24.10
24.12
24.01
23.62
22.91
21.91
20.74
19.59
18.65
18.02
17.68
17.49
17.13
16.14
14.14
10.86
6.35
1.07
-4.32
-9.13
-12.89
-15.54
-17.31
-18.70
-20.24
-22.35
-25.30
-29.00
-33.01
-36.65
-39.03
-39.32
-36.96
-31.93
-24.69
-16.20
-7.51
0.43
7.07
12.39
16.82
20.95
25.22
29.69
33.88
37.10
38.78
38.73
37.29
35.14
32.96
31.19
29.84
28.52
26.75
24.13
20.67
16.89
13.40
10.68
8.69
6.89
4.45
0.89
-3.58
-7.97
-10.81
-10.90
-7.81
-2.23
4.18
9.43
11.69
9.81
3.65
-5.87
-17.17
-28.25
-37.58
-44.52
-49.67
-54.81
-62.44
-75.05
-94.21
-119.49
-147.69
-173.01
-188.17
-186.86
-166.24
-128.64
-81.29
-33.84
5.14
31.03
44.05
47.87
46.95
44.25
40.53
35.16
27.79
19.31
11.63
6.68
5.11
5.95
7.10
6.59
3.55
-1.32
-6.31
-9.58
-10.04
-7.85
-4.11
-0.14
3.28
6.57
11.26
19.23
31.71
48.37
66.95
83.78
94.88
97.20
89.52
72.73
49.62
24.19
0.86
-16.38
-24.58
-22.43
-10.55
8.74
31.87
54.99
74.82
89.26
97.58
100.25
98.25
92.70
84.42
73.80
61.13
46.84
31.71
16.85
3.27
-8.47
-18.56
-27.80
-37.10
-46.90
-56.89
-66.04
-73.07
-77.09
-77.83
-75.71
-71.60
-66.56
-61.55
-57.35
-54.43
-52.83
-52.20
-51.82
-50.76
-48.25
-43.98
-38.36
-32.56
-28.02
-26.05
-27.16
-30.74
-35.27
-38.81
-39.77
-37.70
-33.35
-28.48
-25.12
-24.69
-27.36
-31.91
-35.90
-36.56
-31.63
-20.17
-2.98
17.66
38.73
57.23
71.09
79.39
82.20
80.32
74.98
67.51
59.39
51.94
46.23
42.83
41.77
42.65
44.75
47.14
48.74
48.58
46.02
41.02
34.37
27.33
21.13
16.23
12.03
7.09
-0.02
-10.02
-22.37
-35.42
-47.26
-56.27
-61.75
-63.85
-63.05
-59.82
-54.41
-46.86
-37.30
-26.06
-13.62
-0.53
12.79
26.06
38.93
50.85
60.95
68.15
71.37
69.97
64.18
55.20
45.28
37.20
33.63
36.36
45.48
59.45
75.36
89.92
100.43
105.37
104.51
98.66
89.09
77.04
63.56
49.41
34.82
19.42
2.08
-18.73
-44.06
-73.26
-103.38
-129.69
-147.63
-154.95
-152.92
-145.56
-137.39
-130.81
-124.86
-116.24
-101.64
-80.34
-54.88
-29.91
-9.59
4.72
14.76
24.10
35.98
51.41
68.90
85.47
98.40
106.69
111.38
114.92
119.41
125.32
131.00
133.37
129.43
117.75
99.14
76.09
51.56
27.57
4.59
-18.04
-41.14
-64.78
-87.82
-108.49
-125.19
-137.11
-144.35
-147.44
-146.87
-142.76
-135.01
-123.64
-109.15
-92.63
-75.46
-59.00
-44.21
-31.47
-20.79
-11.98
-4.84
0.71
4.79
7.58
9.33
10.41
11.21
11.91
12.58
13.10
13.29
13.05
12.43
11.50
10.37
8.96
7.07
4.50
1.02
-3.35
-8.49
-14.14
-20.12
-26.31
-32.89
-40.00
-47.67
-55.51
-62.63
-67.71
-69.39
-66.60
-58.98
-47.12
-32.39
-16.69
-1.93
10.70
20.76
28.73
35.60
42.33
49.60
57.70
66.65
76.17
85.60
93.50
97.88
96.83
89.37
76.33
60.20
44.29
31.34
22.56
17.30
13.93
10.82
7.16
3.12
-0.81
-4.42
-8.09
-12.75
-19.28
-27.98
-38.25
-48.75
-57.54
-62.95
-63.93
-60.38
-53.02
-43.05
-31.69
-19.95
-8.50
2.15
11.61
19.62
26.05
31.02
34.77
37.52
39.42
40.59
41.23
41.65
42.28
43.38
44.97
46.76
48.31
49.23
49.44
49.13
48.59
47.89
46.81
44.90
41.75
37.27
31.97
26.51
21.57
17.41
13.63
9.55
4.81
-0.10
-3.87
-5.11
-3.39
0.36
4.10
5.81
4.76
1.98
-0.28
0.21
4.39
11.47
19.58
26.74
31.90
35.11
37.10
38.62
39.98
41.04
41.58
41.60
41.33
41.12
41.34
42.06
43.04
43.83
43.88
42.82
40.57
37.32
33.56
29.70
26.02
22.56
19.10
15.34
11.08
6.24
0.94
-4.63
-10.37
-16.28
-22.49
-28.98
-35.35
-40.74
-43.97
-43.96
-40.16
-32.84
-22.98
-12.03
-1.38
8.01
15.67
21.59
25.98
29.12
31.26
32.68
33.63
34.34
35.01
35.71
36.43
37.03
37.34
37.20
36.62
35.73
34.84
34.18
33.82
33.55
32.91
31.36
28.56
24.48
19.42
14.01
8.83
4.31
0.58
-2.65
-5.86
-9.64
-14.43
-20.30
-26.84
-33.22
-38.34
-41.14
-40.86
-37.32
-31.00
-22.94
-14.36
-6.37
0.50
6.25
11.20
15.66
19.63
22.74
24.54
24.88
24.01
22.68
21.72
21.65
22.58
24.20
26.01
27.63
28.83
29.46
29.38
28.41
26.41
23.47
19.95
16.31
12.97
10.03
7.30
4.54
1.52
-1.69
-4.86
-7.84
-10.66
-13.62
-17.13
-21.47
-26.57
-32.01
-37.04
-40.81
-42.59
-41.91
-38.76
-33.55
-27.04
-20.04
-13.25
-7.05
-1.61
3.03
6.77
9.48
11.07
11.67
11.60
11.34
11.28
11.55
12.08
12.68
13.15
13.53
13.93
14.49
15.16
15.64
15.53
14.56
12.70
10.28
7.74
5.41
3.34
1.37
-0.81
-3.32
-6.05
-8.72
-11.10
-13.26
-15.53
-18.34
-21.98
-26.38
-31.11
-35.55
-39.05
-41.09
-41.32
-39.61
-35.95
-30.64
-24.16
-17.20
-10.55
-4.82
-0.38
2.67
4.52
5.55
6.16
6.81
7.81
9.24
10.98
12.69
13.98
14.68
14.84
14.75
14.78
15.06
15.48
15.69
15.31
14.18
12.45
10.46
8.61
7.11
5.87
4.61
2.99
0.83
-1.80
-4.66
-7.42
-9.77
-11.59
-12.98
-14.14
-15.48
-17.35
-19.96
-23.32
-27.11
-30.79
-33.84
-35.72
-36.06
-34.70
-31.61
-26.97
-21.25
-15.07
-9.14
-4.09
-0.21
2.51
4.31
5.49
6.21
6.56
6.65
6.69
7.00
7.77
8.93
10.15
11.00
11.21
10.80
10.08
9.42
9.05
8.95
8.80
8.25
7.07
5.15
2.66
-0.11
-2.80
-4.99
-6.50
-7.36
-7.84
-8.40
-9.45
-11.18
-13.54
-16.35
-19.40
-22.60
-25.87
-29.09
-31.98
-34.04
-34.77
-33.86
-31.29
-27.38
-22.66
-17.64
-12.77
-8.33
-4.48
-1.30
1.15
2.89
3.99
4.59
4.89
5.05
5.22
5.46
5.80
6.31
7.06
8.05
9.19
10.22
10.78
10.60
9.53
7.74
5.58
3.43
1.53
-0.05
-1.47
-2.91
-4.43
-6.04
-7.63
-9.15
-10.71
-12.43
-14.45
-16.84
-19.56
-22.52
-25.65
-28.72
-31.43
-33.29
-33.73
-32.37
-29.24
-24.78
-19.72
-14.83
-10.52
-6.90
-3.75
-0.80
1.99
4.44
6.29
7.34
7.68
7.64
7.61
7.88
8.49
9.27
9.97
10.33
10.26
9.85
9.28
8.74
8.34
7.98
7.45
6.47
4.79
2.38
-0.57
-3.76
-6.84
-9.62
-12.06
-14.21
-16.19
-18.08
-19.98
-22.10
-24.70
-27.92
-31.71
-35.63
-38.94
-40.78
-40.49
-37.82
-33.08
-27.02
-20.50
-14.31
-8.91
-4.34
-0.43
3.14
6.54
9.70
12.28
13.85
14.20
13.53
12.51
11.99
12.63
14.44
16.87
19.05
20.25
20.29
19.55
18.52
17.53
16.47
15.00
12.89
10.22
7.37
4.77
2.56
0.53
-1.66
-4.31
-7.47
-10.92
-14.38
-17.69
-20.89
-24.21
-27.87
-31.89
-36.07
-39.77
-42.19
-42.55
-40.26
-35.25
-28.07
-19.67
-11.25
-3.84
1.96
6.11
9.01
11.32
13.50
15.72
17.84
19.59
20.87
21.78
22.63
23.67
24.97
26.32
27.39
27.89
27.74
27.05
26.09
25.17
24.50
24.05
23.50
22.43
20.38
17.21
13.17
8.81
4.69
1.12
-2.02
-5.03
-8.10
-11.18
-13.97
-16.21
-18.11
-20.26
-23.41
-27.92
-33.43
-38.87
-42.91
-44.42
-43.01
-39.05
-33.38
-26.99
-20.55
-14.30
-8.22
-2.23
3.63
9.08
13.79
17.46
19.98
21.51
22.41
23.02
23.69
24.58
25.66
26.79
27.77
28.46
28.89
29.23
29.64
30.12
30.33
29.85
28.33
25.81
22.74
19.82
17.56
16.02
14.76
13.05
10.36
6.63
2.29
-1.99
-5.65
-8.50
-10.78
-13.04
-15.84
-19.48
-23.94
-28.73
-33.11
-36.26
-37.48
-36.32
-32.70
-26.92
-19.60
-11.65
-3.99
2.57
7.51
10.76
12.58
13.50
14.10
14.80
15.76
16.93
18.11
19.08
19.76
20.17
20.48
20.88
21.49
22.30
23.14
23.64
23.42
22.28
20.25
17.64
14.88
12.33
10.12
8.12
6.08
3.85
1.46
-0.93
-3.15
-5.15
-7.06
-9.03
-11.25
-13.79
-16.65
-19.87
-23.49
-27.45
-31.54
-35.28
-37.97
-38.96
-37.70
-34.01
-28.18
-20.86
-13.06
-5.82
0.13
4.48
7.38
9.29
10.60
11.53
12.12
12.27
12.06
11.75
11.70
12.22
13.36
14.91
16.51
17.86
18.86
19.54
19.89
19.77
19.00
17.40
15.04
12.20
9.26
6.54
4.18
2.12
0.20
-1.66
-3.56
-5.45
-7.35
-9.29
-11.29
-13.35
-15.51
-17.84
-20.51
-23.61
-26.90
-29.79
-31.41
-30.93
-28.02
-23.02
-16.83
-10.46
-4.70
0.22
4.35
7.84
10.64
12.54
13.34
13.05
12.09
11.00
10.32
10.26
10.72
11.39
11.97
12.32
12.38
12.19
11.76
11.03
9.98
8.68
7.20
5.65
4.12
2.57
0.99
-0.69
-2.45
-4.24
-6.00
-7.71
-9.41
-11.28
-13.51
-16.24
-19.52
-23.10
-26.60
-29.46
-31.04
-30.93
-28.94
-25.24
-20.34
-14.91
-9.59
-4.81
-0.71
2.73
5.59
7.80
9.25
9.79
9.43
8.50
7.50
6.96
7.22
8.27
9.86
11.62
13.12
14.03
14.19
13.55
12.26
10.60
8.85
7.25
5.81
4.38
2.78
0.82
-1.47
-3.91
-6.30
-8.52
-10.58
-12.63
-14.79
-17.12
-19.65
-22.34
-25.18
-28.12
-31.00
-33.51
-35.14
-35.34
-33.73
-30.22
-25.11
-19.00
-12.61
-6.55
-1.26
3.11
6.59
9.30
11.38
12.96
14.06
14.67
14.90
14.81
14.59
14.41
14.38
14.57
14.96
15.49
16.10
16.70
17.18
17.39
17.16
16.34
14.99
13.14
10.93
8.52
5.95
3.31
0.70
-1.78
-4.08
-6.28
-8.53
-11.00
-13.65
-16.32
-18.82
-21.13
-23.57
-26.63
-30.74
-35.82
-41.26
-46.02
-49.15
-50.04
-48.71
-45.51
-40.89
-35.24
-28.79
-21.81
-14.73
-8.13
-2.57
1.65
4.65
6.89
8.89
11.06
13.48
16.05
18.61
21.02
23.26
25.30
26.96
27.98
28.12
27.31
25.80
23.98
22.18
20.52
18.89
17.12
15.27
13.63
12.49
11.97
11.80
11.44
10.39
8.36
5.46
2.09
-1.40
-4.74
-7.83
-10.63
-13.20
-15.59
-18.08
-21.06
-24.88
-29.60
-34.68
-39.13
-41.79
-41.73
-38.65
-32.95
-25.56
-17.59
-10.02
-3.48
1.78
5.77
8.74
10.91
12.58
14.10
15.73
17.73
20.15
22.82
25.33
27.19
27.90
27.32
25.70
23.65
21.99
21.37
22.06
23.83
25.92
27.39
27.51
25.97
23.01
19.25
15.32
11.65
8.30
5.11
2.00
-1.01
-3.79
-6.23
-8.46
-10.82
-13.67
-17.17
-21.21
-25.43
-29.53
-33.37
-36.87
-39.99
-42.45
-43.74
-43.30
-40.79
-36.21
-30.04
-22.95
-15.67
-8.81
-2.72
2.45
6.73
10.16
12.80
14.68
15.81
16.24
16.18
15.98
16.08
16.84
18.34
20.34
22.29
23.66
24.10
23.67
22.72
21.59
20.46
19.24
17.62
15.35
12.41
9.03
5.59
2.37
-0.58
-3.39
-6.32
-9.61
-13.34
-17.49
-21.94
-26.61
-31.46
-36.46
-41.46
-46.24
-50.28
-52.90
-53.37
-51.05
-45.75
-37.73
-27.87
-17.40
-7.59
0.80
7.54
13.02
17.82
22.39
26.80
30.77
33.90
36.05
37.40
38.34
39.30
40.47
41.75
42.96
43.89
44.37
44.29
43.52
41.98
39.75
37.09
34.34
31.78
29.37
26.81
23.87
20.30
16.25
12.08
8.25
5.05
2.64
0.89
-0.61
-2.29
-4.87
-8.98
-15.05
-22.95
-31.69
-39.39
-43.66
-42.45
-35.14
-23.19
-9.79
1.23
7.11
7.34
3.74
-0.56
-2.77
-1.73
1.79
6.08
9.52
11.58
12.82
14.20
16.28
18.88
21.22
22.54
22.64
21.97
21.31
21.45
22.58
24.26
25.55
25.54
23.86
20.78
17.19
14.13
12.22
11.43
11.07
10.19
8.09
4.57
0.07
-4.64
-8.81
-11.99
-14.23
-15.99
-17.89
-20.47
-24.07
-28.71
-34.12
-39.75
-44.80
-48.39
-49.69
-48.15
-43.61
-36.51
-27.66
-18.20
-9.23
-1.56
4.49
9.10
12.74
15.89
18.82
21.51
23.74
25.32
26.28
26.90
27.54
28.45
29.59
30.68
31.45
31.73
31.62
31.36
31.12
30.94
30.63
29.92
28.58
26.58
24.10
21.51
19.23
17.50
16.39
15.64
14.80
13.46
11.31
8.36
4.82
1.03
-2.72
-6.27
-9.62
-12.83
-15.94
-18.94
-21.88
-24.86
-28.03
-31.47
-34.99
-38.06
-39.82
-39.41
-36.26
-30.34
-22.31
-13.29
-4.44
3.25
9.25
13.48
16.12
17.56
18.19
18.49
18.83
19.48
20.44
21.57
22.53
23.08
23.15
22.82
22.27
21.68
21.04
20.37
19.72
19.10
18.51
17.76
16.46
14.26
11.05
7.12
3.03
-0.59
-3.41
-5.48
-7.16
-8.87
-10.78
-12.84
-14.83
-16.59
-18.29
-20.24
-22.81
-26.15
-30.01
-33.69
-36.31
-37.03
-35.35
-31.42
-25.87
-19.59
-13.46
-7.95
-3.17
1.01
4.67
7.70
9.76
10.58
10.21
9.20
8.40
8.53
9.88
12.12
14.47
16.13
16.70
16.22
15.13
14.00
13.27
13.22
13.88
15.16
16.82
18.45
19.48
19.37
17.74
14.54
10.18
5.28
0.44
-3.95
-7.90
-11.67
-15.63
-20.00
-24.78
-29.68
-34.15
-37.46
-38.85
-37.71
-33.82
-27.47
-19.50
-11.01
-3.10
3.47
8.35
11.56
13.25
13.57
12.60
10.46
7.50
4.18
1.06
-1.49
-3.36
-4.56
-5.12
-4.93
-3.70
-1.23
2.42
6.72
10.79
13.60
14.42
13.05
9.91
5.73
1.23
-3.13
-7.18
-10.93
-14.37
-17.42
-20.04
-22.34
-24.59
-27.17
-30.17
-33.30
-35.86
-36.93
-35.83
-32.36
-26.80
-19.86
-12.36
-5.08
1.33
6.47
10.20
12.56
13.82
14.33
14.43
14.45
14.67
15.21
16.12
17.30
18.46
19.34
19.74
19.66
19.20
18.46
17.45
16.05
14.22
12.06
9.91
8.13
6.77
5.61
4.17
2.03
-0.89
-4.29
-7.64
-10.48
-12.74
-14.69
-16.79
-19.46
-22.89
-26.95
-31.19
-34.99
-37.66
-38.63
-37.56
-34.43
-29.59
-23.53
-16.87
-10.06
-3.46
2.67
8.16
12.75
16.26
18.62
19.92
20.44
20.50
20.36
20.13
19.87
19.56
19.25
19.08
19.12
19.41
19.88
20.31
20.52
20.38
19.84
18.93
17.66
15.93
13.61
10.63
7.04
3.15
-0.62
-3.89
-6.47
-8.47
-10.15
-11.75
-13.44
-15.32
-17.51
-20.25
-23.78
-28.16
-33.09
-37.74
-41.01
-41.98
-40.14
-35.70
-29.42
-22.26
-15.06
-8.33
-2.15
3.56
8.87
13.67
17.58
20.13
21.01
20.34
18.72
17.18
16.69
17.83
20.51
24.03
27.37
29.68
30.52
29.87
28.05
25.56
23.22
22.20
23.89
29.44
38.98
51.22
63.67
73.43
78.45
78.32
74.16
67.80
60.70
53.13
44.45
33.62
20.20
4.71
-11.61
-27.26
-41.03
-52.09
-59.88
-63.87
-63.64
-59.04
-50.53
-39.37
-27.39
-16.50
-8.14
-2.82
-0.20
0.46
-0.11
-1.50
-3.74
-6.85
-10.64
-14.61
-18.16
-20.86
-22.66
-23.79
-24.54
-25.05
-25.13
-24.67
-23.68
-22.45
-21.43
-20.95
-21.00
-21.38
-21.83
-22.24
-22.77
-23.64
-24.97
-26.59
-28.05
-28.84
-28.70
-27.80
-26.73
-26.35
-27.27
-29.71
-33.28
-37.14
-40.31
-41.91
-41.41
-38.67
-33.91
-27.57
-20.29
-12.79
-5.70
0.43
5.35
9.07
11.82
13.96
15.69
17.11
18.16
18.72
18.74
18.35
17.74
17.16
16.82
16.72
16.77
16.76
16.46
15.67
14.24
12.06
9.07
5.22
0.48
-5.11
-11.39
-17.99
-24.24
-29.35
-32.61
-33.76
-33.21
-31.94
-31.12
-31.53
-33.26
-35.53
-37.22
-37.29
-35.18
-31.00
-25.28
-18.65
-11.71
-4.85
1.61
7.41
12.28
16.01
18.47
19.67
19.75
18.94
17.62
16.17
14.93
14.19
14.06
14.48
15.30
16.31
17.26
17.97
18.19
17.73
16.49
14.45
11.73
8.55
5.20
1.88
-1.25
-4.25
-7.28
-10.62
-14.57
-19.23
-24.50
-29.94
-34.77
-38.07
-38.94
-36.77
-31.53
-23.86
-14.90
-6.09
1.41
6.98
10.78
13.38
15.48
17.45
19.20
20.40
20.76
20.42
19.85
19.62
20.08
21.06
22.01
22.39
21.88
20.59
18.83
16.84
14.65
12.08
8.94
5.32
1.58
-1.94
-5.15
-8.35
-12.13
-16.93
-22.85
-29.57
-36.48
-42.99
-48.52
-52.45
-54.12
-52.88
-48.37
-40.85
-31.22
-20.80
-10.92
-2.42
4.47
9.95
14.34
17.83
20.34
21.78
22.22
21.95
21.50
21.35
21.79
22.72
23.81
24.61
24.88
24.54
23.76
22.70
21.35
19.56
17.19
14.20
10.79
7.30
4.01
0.98
-1.93
-4.99
-8.40
-12.24
-16.55
-21.28
-26.31
-31.28
-35.41
-37.64
-36.97
-32.91
-25.79
-16.65
-6.85
2.52
10.86
18.12
24.37
29.62
33.72
36.45
37.83
38.18
37.98
37.69
37.54
37.51
37.44
37.19
36.72
36.17
35.63
35.28
35.16
35.15
35.06
34.54
33.26
31.08
28.03
24.27
20.05
15.58
11.05
6.68
2.70
-0.72
-3.55
-6.02
-8.55
-11.58
-15.45
-20.27
-25.86
-31.90
-37.85
-42.88
-46.03
-46.32
-43.19
-36.76
-27.99
-18.30
-9.09
-1.19
5.34
10.93
16.12
21.09
25.46
28.67
30.33
30.52
29.84
29.06
28.77
29.10
29.76
30.31
30.46
30.21
29.70
29.15
28.56
27.82
26.76
25.29
23.37
21.01
18.13
14.69
10.67
6.32
2.10
-1.50
-4.19
-6.11
-7.84
-10.17
-13.66
-18.38
-23.75
-28.71
-32.08
-32.94
-30.91
-26.26
-19.73
-12.21
-4.53
2.83
9.69
16.02
21.72
26.43
29.63
30.87
30.01
27.50
24.25
21.30
19.36
18.59
18.60
18.80
18.78
18.49
18.16
18.10
18.34
18.67
18.64
17.84
16.08
13.43
10.23
6.92
3.86
1.19
-1.10
-3.27
-5.63
-8.51
-12.16
-16.61
-21.61
-26.66
-31.02
-33.80
-34.27
-32.03
-27.23
-20.59
-13.26
-6.43
-0.96
2.90
5.46
7.33
9.07
10.82
12.35
13.31
13.49
13.07
12.51
12.28
12.63
13.48
14.51
15.49
16.31
17.03
17.70
18.24
18.39
17.84
16.34
13.83
10.42
6.34
1.87
-2.61
-6.74
-10.06
-12.30
-13.39
-13.58
-13.42
-13.61
-14.70
-16.89
-19.97
-23.28
-26.05
-27.55
-27.34
-25.40
-21.98
-17.52
-12.54
-7.53
-2.88
1.14
4.38
6.90
8.83
10.34
11.56
12.43
12.84
12.69
11.99
10.94
9.83
8.79
7.86
6.83
5.47
3.76
1.89
0.34
-0.39
-0.07
1.17
2.84
4.24
4.79
4.26
2.78
0.81
-1.13
-2.73
-3.97
-5.11
-6.50
-8.38
-10.78
-13.49
-16.15
-18.34
-19.73
-20.04
-19.18
-17.26
-14.62
-11.75
-9.23
-7.45
-6.56
-6.37
-6.47
-6.40
-5.63
-3.77
-0.64
3.66
8.59
13.25
16.70
18.20
17.56
15.24
12.06
8.93
6.47
4.89
4.13
4.04
4.39
4.99
5.59
5.84
5.50
4.52
3.12
1.67
0.53
-0.18
-0.59
-0.99
-1.66
-2.72
-4.18
-6.01
-8.13
-10.45
-12.80
-14.83
-16.27
-16.90
-16.72
-15.86
-14.47
-12.56
-10.07
-6.96
-3.38
0.22
3.22
5.05
5.42
4.47
2.75
0.92
-0.48
-1.22
-1.38
-1.20
-0.90
-0.55
-0.09
0.48
1.03
1.33
1.10
0.27
-1.01
-2.51
-4.07
-5.67
-7.43
-9.37
-11.40
-13.28
-14.74
-15.72
-16.39
-17.03
-17.91
-19.15
-20.69
-22.44
-24.17
-25.61
-26.40
-26.08
-24.35
-21.22
-17.04
-12.47
-8.17
-4.59
-1.88
0.12
1.67
2.82
3.55
3.72
3.29
2.47
1.60
1.09
1.21
2.03
3.39
4.94
6.27
7.01
7.00
6.29
5.13
3.92
2.92
2.15
1.45
0.55
-0.66
-2.02
-3.23
-4.03
-4.44
-4.84
-5.75
-7.55
-10.27
-13.51
-16.59
