345
1485
3428
4792
5453
6261
7065
7576
8018
8468
8826
9125
9470
9772
9928
10054
10178
10300
10442
10456
10393
10437
10503
10559
10664
10701
10680
10725
10762
10797
10902
10921
10841
10911
11026
10982
10975
10977
10806
10718
10727
10711
10729
10678
10596
10580
10514
10458
10479
10503
10519
10433
10272
10239
10241
10136
10071
10043
9954
9905
9891
9804
9732
9702
9646
9674
9879
10258
10680
10423
9211
8349
8546
8861
8884
8905
8887
8812
8751
8669
8616
8613
8667
8681
8426
8148
8155
8160
8041
7994
7945
7835
7793
7784
7754
7709
7628
7590
7623
7597
7471
7310
7210
7149
7055
6915
6780
6670
6518
6369
6292
6215
6107
6044
6014
5939
5857
5827
5785
5705
5642
5593
5549
5526
5486
5425
5399
5376
5315
5262
5201
5129
5082
5042
5005
4970
4909
4848
4818
4788
4745
4703
4647
4584
4526
4489
4475
4421
4309
4246
4241
4250
4449
4862
5192
5103
4248
3136
2961
3459
3620
3592
3683
3699
3662
3631
3522
3449
3473
3470
3449
3438
3398
3370
3370
3358
3349
3349
3328
3290
3248
3232
3241
3223
3178
3162
3150
3132
3115
3054
2945
2861
2774
2641
2520
2412
2309
2242
2202
2169
2118
2060
2048
2048
2024
2034
2045
2001
1943
1938
1950
1931
1922
1887
1831
1845
1868
1826
1782
1770
1777
1805
1840
1856
1835
1791
1761
1744
1733
1721
1662
1571
1541
1550
1536
1520
1518
1560
1772
2298
3008
3052
1849
742
899
1340
1347
1349
1417
1378
1361
1392
1368
1335
1354
1356
1321
1312
1342
1382
1389
1340
1319
1363
1382
1380
1410
1413
1394
1410
1403
1352
1356
1387
1356
1317
1279
1195
1118
1062
1004
959
882
789
780
775
698
679
738
749
754
784
768
710
691
747
791
740
679
674
651
611
618
637
651
651
607
553
558
609
637
588
551
609
646
618
602
581
548
551
581
611
691
964
1457
1884
1576
446
-214
161
560
581
632
686
616
572
579
558
569
579
532
527
572
614
628
635
646
628
590
628
714
714
649
658
749
796
773
801
810
754
768
875
875
726
637
593
469
404
490
518
399
404
586
712
742
784
824
880
1109
1359
1508
1891
2258
2132
1943
2062
2218
2258
2337
2548
2758
2940
3141
3258
3258
3174
3003
2914
2933
2893
2907
3038
3115
3139
3188
3281
3402
3589
4007
4570
4325
2863
1751
1919
2190
2010
1838
1681
1487
1324
1193
1074
908
782
796
791
693
667
674
548
448
548
644
590
609
735
740
644
642
756
819
819
861
880
873
910
840
663
628
733
777
735
703
672
679
717
712
731
768
756
794
833
791
808
857
847
810
738
672
674
733
742
674
686
773
791
766
796
808
749
756
810
791
777
798
784
761
784
796
817
1074
1648
2263
2132
962
72
305
705
710
712
766
733
691
726
824
817
740
831
896
812
819
859
801
780
854
875
843
859
887
887
917
976
978
971
1027
1001
929
1004
1058
994
945
917
861
780
735
747
740
775
847
885
875
815
822
875
880
892
952
973
885
857
910
908
899
889
861
868
861
843
843
787
705
700
738
707
644
672
721
738
761
689
576
733
1095
1473
1933
1884
747
-231
44
527
488
520
728
710
588
660
798
735
611
684
782
700
586
623
721
660
583
637
635
590
618
635
660
798
885
768
658
698
854
896
625
541
665
415
266
495
404
86
214
446
247
193
441
355
49
35
324
401
28
-144
233
324
-9
81
205
28
119
228
119
135
233
231
196
84
44
116
235
359
149
79
268
210
338
766
1107
1658
1639
130
-1062
-628
88
226
490
700
369
168
158
172
343
434
462
574
485
242
399
504
340
523
621
404
453
597
513
502
719
801
602
569
780
796
681
658
646
679
660
488
520
787
763
411
364
677
672
392
446
684
689
658
679
703
763
759
817
943
992
1137
1270
1149
1093
1321
1527
1599
1695
1812
1887
1940
2064
2230
2291
2249
2316
2515
2344
2253
2975
3851
4360
3870
2424
1999
2870
3442
3739
4225
4491
4804
5460
6142
7116
8181
8639
8704
8700
8728
8922
9258
9361
9108
9239
9716
9585
9270
9538
9737
9664
9821
9952
9921
9893
9811
9966
10339
10342
10211
10449
10622
10568
10669
10848
11021
11281
11271
11138
11551
12098
12607
13822
15361
16489
18058
19130
19130
19130
19130
13642
17517
19130
19130
19130
19130
19130
15235
13359
13345
12663
11951
12070
12395
12523
12705
12761
12586
12630
12785
12950
13270
13154
12163
11192
11227
11598
11432
11241
11339
11171
10678
10377
10243
9994
9823
9774
9587
9389
9284
9045
8639
8356
8282
8148
7906
7674
7345
7002
6775
6380
5827
5374
4907
4414
3951
3477
3134
2924
2650
2298
1994
1793
1576
1291
1030
815
548
317
228
102
-149
-319
-401
-553
-705
-805
-920
-1008
-1022
-1048
-1135
-1177
-1219
-1413
-1810
-2431
-3255
-4206
-5161
-5958
-6478
-6740
-6960
-7266
-7424
-7408
-7466
-7448
-7203
-6878
-6892
-8141
-10106
-10897
-10596
-10505
-10706
-10869
-11010
-11094
-11138
-11203
-11318
-11521
-11607
-11435
-11285
-11231
-11073
-10949
-10991
-10982
-10867
-10841
-10883
-10886
-10767
-10573
-10482
-10407
-10265
-10227
-10197
-9998
-9830
-9802
-9786
-9811
-9846
-9790
-9753
-9753
-9741
-9760
-9699
-9573
-9561
-9583
-9536
-9519
-9508
-9449
-9445
-9438
-9363
-9319
-9232
-9085
-9048
-9139
-9150
-8973
-8791
-8683
-8581
-8529
-8707
-8861
-8527
-8130
-8046
-7943
-7833
-7807
-7644
-7401
-7139
-6621
-5825
-5488
-6371
-7443
-7326
-6761
-6696
-6679
-6455
-6345
-6301
-6187
-6102
-6030
-5934
-5869
-5782
-5612
-5451
-5378
-5285
-5147
-5075
-5035
-4944
-4839
-4729
-4594
-4468
-4369
-4285
-4222
-4157
-4080
-4021
-4007
-3998
-3965
-3998
-4066
-4042
-4010
-4026
-3989
-3879
-3790
-3767
-3779
-3743
-3666
-3631
-3601
-3540
-3501
-3447
-3374
-3318
-3244
-3211
-3251
-3190
-3047
-2980
-2928
-2861
-2823
-2758
-2683
-2648
-2597
-2538
-2508
-2452
-2370
-2307
-2190
-1917
-1492
-1111
-1363
-2365
-2945
-2571
-2137
-1999
-1868
-1772
-1763
-1747
-1693
-1646
-1627
-1597
-1546
-1501
-1457
-1408
-1373
-1345
-1307
-1268
-1230
-1198
-1188
-1158
-1065
-990
-959
-938
-943
-957
-929
-892
-854
-831
-896
-1006
-1065
-1081
-1086
-1100
-1107
-1081
-1051
-1034
-1013
-999
-994
-992
-1004
-1013
-973
-920
-894
-889
-896
-889
-861
-805
-735
-705
-712
-705
-660
-618
-616
-618
-600
-583
-565
-532
-506
-460
-277
70
439
390
-481
-1434
-1420
-920
-696
-523
-317
-287
-298
-284
-333
-362
-338
-336
-312
-245
-200
-254
-359
-387
-326
-298
-310
-259
-207
-242
-249
-182
-126
-191
-485
-724
-651
-604
-686
-689
-728
-840
-843
-768
-714
-653
-569
-469
-390
-366
-331
-277
-294
-359
-362
-289
-240
-231
-226
-238
-228
-170
-123
-98
-77
-84
-105
-112
-107
-100
-81
-70
-74
-65
16
249
674
1160
1067
-91
-1146
-924
-369
-263
-114
86
49
9
81
95
37
4
18
35
30
42
70
95
109
98
72
81
86
72
107
165
193
219
217
175
158
158
161
151
58
-63
-114
-142
-214
-275
-284
-282
-298
-317
-315
-319
-319
-289
-308
-322
-270
-284
-357
-369
-380
-420
-401
-350
-343
-319
-266
-247
-235
-228
-277
-301
-263
-270
-263
-217
-238
-224
23
509
1118
1167
-23
-1235
-1058
-408
-273
-233
-100
-88
-126
-100
-72
-46
-37
-84
-79
-16
-4
-25
-21
0
-7
-14
21
65
81
46
46
121
137
95
126
200
191
112
77
56
-23
-133
-203
-219
-228
-240
-226
-231
-275
-273
-203
-140
-158
-226
-219
-184
-217
-231
-184
-151
-149
-140
-135
-109
-70
-86
-109
-95
-112
-123
-128
-168
-158
-133
-154
-51
322
990
1611
1088
-497
-1111
-443
-107
-249
-186
-72
-74
-79
-58
-16
25
9
-49
-58
0
16
-7
16
46
49
74
123
130
88
114
196
196
193
263
231
142
182
226
142
39
-28
-121
-212
-247
-263
-261
-221
-217
-245
-242
-200
-165
-165
-156
-119
-91
-105
-144
-161
-151
-165
-184
-137
-88
-112
-135
-128
-126
-121
-86
-60
-65
-46
-7
53
284
857
1536
1282
-186
-1072
-574
-130
-193
-107
32
-16
-35
46
53
-18
-16
44
65
79
70
39
91
142
105
142
233
207
112
93
177
196
63
9
107
130
32
-25
-2
49
93
135
137
14
-84
-14
37
35
91
135
128
156
198
238
289
228
142
238
385
343
212
329
679
980
1086
901
700
712
602
420
488
576
446
338
434
446
462
663
859
1345
2024
1641
179
-492
-35
233
165
256
355
312
259
254
254
242
280
343
336
322
352
317
287
362
406
406
462
541
541
455
434
504
525
518
553
574
579
625
644
560
478
499
593
705
831
990
1144
1261
1349
1408
1436
1406
1321
1237
1123
994
908
836
759
712
681
604
497
446
455
460
441
413
376
345
343
345
294
200
144
172
275
476
864
1310
1125
-44
-994
-775
-291
-170
-72
-11
-32
7
18
-53
-77
-74
-98
-70
-39
-70
-93
-93
-84
-58
-46
-51
-44
-35
-25
-14
-7
21
44
-2
-46
-37
-70
-135
-158
-212
-301
-362
-397
-425
-453
-467
-462
-460
-441
-418
-406
-401
-390
-369
-355
-357
-352
-333
-312
-270
-259
-324
-340
-270
-224
-207
-163
-56
72
168
242
266
217
156
109
70
60
81
49
-14
37
224
518
969
1174
476
-532
-656
-200
-4
14
67
79
51
39
42
46
56
60
42
25
39
49
35
28
9
-7
16
28
25
63
86
77
109
151
128
93
109
119
86
46
-14
-93
-165
-259
-315
-282
-275
-340
-366
-333
-308
-329
-369
-336
-266
-277
-301
-266
-235
-235
-249
-249
-240
-242
-252
-252
-275
-298
-280
-256
-254
-256
-242
-226
-238
-266
-287
-303
-326
-345
-352
-371
-385
-336
-135
315
878
824
-273
-1221
-1041
-602
-558
-527
-418
-394
-376
-312
-294
-275
-198
-154
-147
-81
-2
30
65
114
161
196
217
252
317
378
422
481
548
588
597
611
618
583
530
483
413
324
254
191
105
35
16
0
-11
-11
-35
-67
-86
-39
23
-21
-98
-70
-21
-37
-58
-51
-79
-130
-121
-100
-142
-170
-198
-200
-137
-168
-242
-135
-4
-72
-168
-156
-170
-221
-217
-266
-387
-312
35
478
679
-32
-1345
-1737
-1195
-913
-894
-782
-759
-815
-796
-775
-789
-768
-745
-742
-721
-710
-710
-679
-646
-637
-630
-611
-560
-483
-462
-483
-443
-355
-310
-296
-259
-233
-252
-254
-247
-275
-338
-439
-555
-618
-630
-644
-660
-649
-630
-595
-544
-525
-534
-548
-551
-504
-448
-441
-443
-415
-408
-415
-380
-348
-366
-387
-357
-317
-315
-310
-305
-324
-317
-301
-317
-338
-357
-364
-350
-319
-298
-308
-319
-305
-303
-315
-305
-284
-287
-291
-233
-63
305
861
1146
404
-885
-1170
-581
-319
-319
-196
-128
-142
-137
-128
-116
-105
-119
-142
-121
-84
-86
-70
-18
-21
-42
0
39
58
95
130
163
184
196
231
277
298
298
296
252
161
98
58
30
7
-35
-79
-144
-205
-191
-151
-168
-214
-210
-165
-149
-156
-156
-156
-149
-144
-140
-142
-149
-135
-116
-116
-112
-114
-121
-102
-102
-137
-151
-149
-149
-147
-142
-144
-151
-140
-133
-133
-121
-135
-165
-165
-133
-116
-116
-112
-123
-105
-39
74
357
829
1202
815
-406
-1090
-665
-226
-67
147
168
32
11
28
21
91
158
119
81
112
119
126
170
184
170
189
217
242
268
284
305
310
287
296
343
364
357
348
329
301
256
165
49
-37
-79
-102
-135
-151
-147
-154
-168
-163
-151
-154
-182
-231
-242
-212
-203
-205
-189
-186
-200
-191
-177
-184
-186
-170
-144
-128
-135
-149
-130
-84
-81
-93
-65
-72
-102
-98
-88
-79
-81
-105
-88
-51
-79
-116
-91
-49
-42
-53
-65
-88
-95
-72
-63
-86
-100
-63
-14
-35
-74
-70
-63
-77
-65
-56
-100
-119
-60
-23
-37
-32
-14
-23
-56
-56
7
25
-37
-42
-7
-2
39
95
207
560
1083
1286
509
-740
-945
-322
-105
-109
70
100
-18
14
88
39
14
77
91
35
-4
16
58
46
65
156
165
121
126
135
135
168
235
312
303
249
284
312
263
275
298
219
158
142
100
81
35
-77
-135
-84
-32
-65
-88
-60
-46
-32
-11
-35
-98
-121
-116
-121
-112
-114
-121
-79
-32
-42
-72
-79
-74
-65
-51
-56
-51
-7
25
-2
-4
28
11
-46
-67
-46
-9
-4
-18
-18
-21
-25
-11
2
-2
-16
-25
-25
-30
-35
-35
-42
-49
-51
-39
-25
-25
-18
9
21
4
-4
-28
-65
-63
-35
-25
-23
-18
39
233
590
1062
1193
373
-700
-770
-282
-133
-126
-65
-77
-84
-42
-25
-23
-9
4
14
23
35
46
56
67
86
100
107
123
144
163
165
158
175
214
247
256
245
247
266
247
217
203
144
63
18
-18
-72
-130
-151
-140
-133
-135
-123
-98
-81
-74
-49
-23
-39
-60
-51
-51
-79
-88
-79
-72
-79
-98
-84
-51
-53
-56
-46
-74
-102
-91
-72
-63
-51
-56
-91
-105
-77
-70
-74
-53
-46
-53
-32
-11
-16
-7
2
-7
-7
-2
-9
-11
0
28
51
65
67
65
70
70
51
53
77
88
81
84
128
240
504
980
1464
1209
-30
-852
-462
-25
-25
53
156
119
98
116
112
119
142
158
165
168
172
184
198
214
224
203
182
205
245
259
263
280
305
333
352
359
364
357
350
324
270
212
123
4
-77
-121
-165
-186
-189
-198
-198
-170
-142
-137
-137
-126
-102
-67
-46
-51
-70
-72
-58
-46
-44
-63
-109
-128
-100
-81
-84
-77
-67
-70
-67
-49
-46
-65
-74
-77
-77
-65
-42
-21
-9
2
11
16
11
4
-4
-30
-51
-32
-2
-4
-4
35
168
485
1004
1387
854
-471
-1018
-460
-84
-88
7
67
23
39
60
18
9
39
49
53
72
81
74
74
88
105
116
135
158
175
198
224
235
242
263
277
273
266
254
233
219
189
112
21
-51
-112
-154
-172
-182
-186
-189
-170
-149
-140
-123
-102
-93
-81
-65
-77
-98
-95
-81
-72
-63
-58
-58
-53
-51
-46
-35
-30
-30
-30
-32
-35
-32
-28
-21
-18
-9
4
16
18
4
-51
-84
-49
-21
-32
-16
37
67
44
16
11
18
18
32
58
46
32
46
56
135
404
894
1466
1378
154
-885
-616
-84
-56
-39
70
60
42
91
100
70
84
116
121
116
105
86
102
135
147
158
161
154
189
254
277
259
273
315
303
277
296
310
291
268
247
207
163
105
-49
-189
-170
-133
-165
-179
-189
-207
-182
-142
-156
-175
-170
-186
-196
-149
-116
-128
-137
-144
-144
-130
-123
-137
-149
-121
-74
-81
-119
-105
-86
-93
-77
-39
-28
-39
-53
-56
-28
-2
-9
-23
-23
-25
-35
-35
-16
-16
-35
-16
39
70
46
25
30
37
37
35
37
49
49
42
53
84
133
266
574
1067
1382
777
-453
-845
-317
-9
-14
70
121
81
93
130
128
128
142
133
126
144
158
137
95
77
105
140
163
175
168
191
240
256
252
273
301
291
284
289
277
256
233
168
56
-30
-56
-74
-119
-149
-147
-126
-91
-81
-98
-91
-67
-53
-30
-9
-16
-37
-32
-9
-11
-28
-23
-18
-37
-42
-30
-44
-53
-39
-39
-37
-23
-28
-28
-11
-4
-2
2
4
16
4
-25
-21
4
9
16
9
-2
11
-9
-63
-63
-21
0
9
25
28
23
32
35
21
30
42
14
-7
14
28
16
74
287
637
1083
1158
282
-735
-703
-191
-53
-32
35
14
7
51
65
72
88
58
42
95
130
119
119
144
163
189
203
196
217
242
245
270
308
319
333
350
329
312
303
261
228
219
179
121
81
44
2
-14
-7
-2
-60
-133
-119
-79
-84
-74
-60
-67
-51
-25
-56
-102
-91
-58
-74
-107
-109
-107
-126
-140
-126
-107
-100
-100
-98
-86
-74
-70
-56
-51
-70
-72
-46
-32
-30
-14
-9
-25
-25
-9
7
9
2
9
25
25
21
21
21
28
32
35
58
72
53
53
60
53
60
56
42
49
67
81
112
224
506
969
1338
913
-291
-878
-422
-49
-30
42
84
18
0
35
56
72
74
58
60
81
102
121
135
137
151
184
207
212
226
252
268
280
298
319
336
333
324
308
301
296
256
184
121
72
18
-16
-39
-88
-126
-121
-133
-154
-137
-114
-109
-98
-81
-84
-84
-77
-74
-67
-51
-51
-70
-77
-74
-70
-49
-37
-49
-37
-18
-28
-51
-79
-84
-53
-39
-51
-65
-114
-179
-177
-135
-116
-126
-133
-119
-105
-93
-65
-37
-16
-14
-25
-28
-11
-2
-9
-2
11
16
18
35
58
128
359
787
1249
1128
4
-950
-698
-172
-77
-11
86
74
74
112
123
126
126
119
133
147
151
161
170
189
219
235
224
226
247
261
284
317
333
329
310
298
303
282
233
205
186
149
100
32
-65
-156
-182
-191
-203
-200
-198
-186
-170
-158
-137
-114
-107
-95
-70
-56
-53
-65
-88
-74
-39
-49
-63
-44
-44
-58
-49
-39
-51
-51
-44
-44
-23
0
9
4
-11
-11
9
21
25
16
4
23
44
46
53
44
25
30
37
46
70
67
65
81
60
25
21
21
18
18
18
37
51
44
51
93
205
481
980
1417
1004
-245
-852
-373
-4
-39
35
123
77
79
112
67
44
86
105
88
84
95
100
116
137
137
140
175
200
191
203
240
256
261
280
296
305
312
296
256
228
210
156
65
-37
-126
-156
-151
-158
-175
-179
-168
-168
-196
-207
-191
-179
-177
-163
-133
-114
-116
-121
-119
-102
-91
-100
-116
-116
-98
-93
-93
-79
-74
-74
-63
-46
-51
-79
-93
-79
-70
-63
-58
-58
-56
-56
-60
-53
-58
-88
-116
-116
-102
-93
-88
-63
-28
-18
-28
-21
-2
-11
-32
-18
7
16
32
44
39
58
182
467
903
1251
838
-319
-880
-455
-98
-70
21
77
25
42
84
77
95
123
112
126
163
168
149
144
168
198
207
219
254
280
284
296
308
315
329
331
333
355
348
301
273
256
200
100
-9
-79
-112
-151
-161
-130
-144
-165
-126
-95
-95
-84
-81
-81
-51
-46
-67
-58
-44
-35
-23
-14
-9
-23
-37
-21
-11
-35
-49
-49
-58
-56
-23
-16
-35
-21
-14
-32
-21
4
-11
-23
25
53
44
67
84
51
37
63
72
63
65
67
67
70
95
140
240
497
901
1139
621
-446
-822
-359
-35
18
119
147
53
9
39
49
42
74
91
67
77
114
126
126
130
137
165
205
226
238
259
268
277
287
301
319
305
270
266
277
252
161
79
60
39
-14
-42
-65
-105
-116
-95
-63
-42
-51
-44
-14
-23
-42
-7
4
-49
-86
-60
-11
4
-63
-149
-123
-53
-44
-56
-56
-56
-44
-28
-14
-9
-14
-2
9
-18
-28
0
4
-11
-14
4
44
44
-7
-25
-2
2
0
4
0
2
9
4
9
65
224
504
861
931
214
-705
-768
-305
-91
-11
91
100
84
107
114
116
142
151
154
158
165
182
196
200
210
226
245
263
270
275
298
324
340
362
378
383
385
376
355
331
296
245
191
133
67
18
-9
-23
-18
-16
-9
4
0
-9
2
16
23
7
-25
-39
-42
-53
-58
-63
-77
-86
-105
-135
-140
-126
-126
-116
-95
-93
-102
-100
-91
-79
-72
-65
-60
-63
-65
-58
-51
-51
-44
-21
4
18
14
2
-16
-30
-30
-23
-21
-14
-21
-51
-56
0
142
429
822
1034
513
-579
-997
-518
-168
-95
49
126
84
86
119
114
112
128
140
140
135
140
147
151
158
168
172
186
210
226
221
200
186
193
221
245
249
233
207
191
168
112
42
-28
-93
-142
-168
-177
-186
-186
-165
-140
-121
-102
-86
-88
-86
-67
-42
-30
-28
-35
-39
-39
-39
-35
-32
-44
-46
-30
-18
-16
-14
-16
-25
-35
-37
-46
-60
-67
-51
-25
-9
2
4
-9
-28
-35
-32
-28
-30
-28
-11
2
9
14
67
308
747
1165
971
-156
-1053
-768
-233
-107
9
126
72
30
77
95
86
109
121
119
135
158
161
158
165
179
198
217
245
273
289
305
331
357
380
394
397
387
373
357
326
273
196
126
65
14
-14
-35
-49
-46
-32
-14
7
21
16
7
18
42
51
51
51
53
56
58
44
18
14
21
23
28
30
30
32
37
42
51
56
46
32
28
35
21
-39
-109
-114
-81
-63
-58
-58
-58
-67
-84
-93
-93
-93
-91
-77
-67
-56
-42
-25
70
345
801
1226
938
-270
-1041
-628
-149
-95
-14
70
42
44
84
88
84
84
81
84
100
119
126
135
154
172
184
205
228
231
231
249
275
298
315
326
336
340
324
294
256
214
158
93
35
-9
-39
-53
-53
-58
-70
-88
-102
-95
-67
-53
-46
-35
-28
-18
-7
0
2
-4
-7
4
11
11
9
4
9
16
25
32
28
23
28
39
42
32
28
23
7
2
18
25
11
7
18
21
11
7
-7
-25
-28
-23
-44
-70
-74
-72
-60
-42
-11
11
2
-11
-4
7
2
-4
-7
-2
11
21
14
11
44
196
530
987
1202
511
-684
-962
-383
-81
-60
39
67
30
63
98
95
102
105
109
128
144
154
156
151
165
193
212
231
254
254
259
289
319
336
345
343
340
343
333
305
266
214
158
105
51
-18
-67
-81
-84
-79
-63
-67
-98
-105
-79
-60
-46
-32
-32
-35
-28
-37
-58
-70
-72
-77
-74
-65
-63
-67
-70
-63
-60
-67
-79
-86
-98
-112
-109
-100
-109
-149
-175
-165
-149
-144
-142
-142
-140
-135
-130
-123
-121
-130
-133
-128
-121
-114
-109
-105
-95
-88
-84
-74
-67
-60
-51
-46
-46
-39
-46
-51
-23
7
14
14
16
18
21
23
28
37
42
49
58
51
51
123
324
689
1130
1125
196
-782
-686
-142
16
51
147
142
116
154
172
161
168
184
186
191
205
214
221
233
240
254
275
289
296
305
317
338
362
373
380
364
317
280
273
252
210
163
114
60
37
35
-16
-74
-98
-170
-235
-184
-128
-135
-112
-51
-25
-42
-65
-70
-70
-91
-72
-18
-77
-170
-133
-84
-128
-137
-102
-67
-21
-32
-84
-93
-105
-119
-81
-44
-30
9
18
-30
-9
28
-18
-39
14
32
7
37
58
-23
-70
7
70
70
42
-11
-37
-4
25
25
21
14
4
-9
-51
-51
-11
-28
-16
30
9
-16
11
37
51
16
-51
-4
112
214
499
1095
1490
822
-504
-950
-446
-77
-42
-16
51
91
60
32
91
142
105
72
98
133
121
112
149
172
170
137
102
137
203
231
214
191
254
336
305
240
247
245
207
212
170
84
74
46
-46
-98
-116
-163
-147
-77
-74
-93
-74
-86
-109
-81
-93
-130
-102
-84
-77
-37
-21
-23
-51
-91
-88
-70
-70
-63
-28
-14
-56
-74
-28
16
-11
-44
-9
18
14
42
70
51
23
42
53
35
53
56
39
53
60
51
81
123
123
114
114
95
79
91
121
137
126
116
154
210
203
252
541
1135
1719
1314
-72
-670
-100
179
-7
37
102
-51
-133
-135
-301
-443
-362
-324
-364
-275
-184
-196
-172
-100
-65
-46
-21
28
86
116
128
189
226
200
247
296
242
245
301
256
191
147
67
35
7
-60
-74
-44
-37
-44
-39
-9
14
2
-7
30
53
16
-4
0
9
35
56
67
95
95
51
51
77
86
109
70
25
72
95
79
100
102
79
84
70
46
37
7
0
18
0
-18
2
44
98
130
154
191
228
266
317
357
338
315
350
378
392
439
443
497
822
1328
1557
950
-126
-441
46
380
408
443
460
415
413
464
497
476
453
471
471
453
478
516
520
539
560
560
576
632
674
651
646
663
588
562
611
600
590
593
539
478
434
364
263
189
156
151
142
121
147
191
186
186
214
210
226
305
373
439
518
593
738
929
1034
1044
1060
1093
1076
1060
1074
1065
1041
990
906
885
866
782
731
712
658
607
579
523
476
464
441
422
455
481
476
457
420
406
408
373
355
390
408
394
376
364
364
404
583
922
1284
1228
345
-548
-476
2
198
284
394
434
380
373
441
429
378
397
415
411
429
464
476
509
581
621
609
590
588
614
651
644
604
576
567
555
541
520
469
401
357
315
226
154
163
140
72
60
74
81
105
140
170
198
200
170
168
200
205
193
198
191
179
200
210
158
109
91
74
77
109
123
107
91
93
123
133
95
98
135
147
154
163
165
170
196
226
238
245
256
259
270
282
280
291
284
247
214
198
203
228
270
401
672
987
952
219
-509
-427
-16
135
205
287
280
259
275
284
291
303
310
310
310
329
348
343
333
336
352
380
399
401
394
359
340
380
422
434
441
411
383
399
394
343
280
205
161
156
135
109
126
137
100
86
128
163
154
154
170
179
182
175
149
128
123
107
88
81
58
30
44
53
23
2
4
2
-4
-2
7
14
11
14
21
32
46
35
-4
-9
28
49
56
81
95
91
88
93
79
35
21
53
74
72
91
102
121
287
642
1069
1181
427
-625
-733
-207
25
84
172
175
156
191
207
182
149
140
154
168
189
212
210
186
196
226
233
238
263
289
305
324
357
376
369
371
394
387
336
266
184
112
53
2
-42
-88
-114
-102
-84
-88
-86
-70
-53
-30
-9
-9
-9
-11
-46
-72
-46
-30
-44
-44
-46
-60
-67
-65
-70
-72
-67
-72
-65
-58
-65
-72
-86
-102
-93
-95
-126
-140
-130
-126
-119
-95
-84
-98
-121
-140
-135
-121
-130
-142
-121
-112
-137
-147
-128
-88
49
392
917
1202
495
-742
-1018
-457
-179
-186
-142
-114
-114
-95
-81
-81
-81
-60
-39
-46
-60
-53
-35
-23
-28
-35
-23
4
23
39
67
95
109
123
137
158
170
161
126
74
18
-37
-93
-151
-200
-235
-256
-254
-252
-247
-228
-205
-196
-198
-198
-186
-170
-161
-156
-140
-130
-135
-130
-109
-114
-133
-121
-107
-121
-119
-98
-91
-100
-126
-135
-114
-95
-93
-91
-112
-156
-170
-154
-156
-177
-205
-224
-217
-196
-184
-179
-172
-179
-200
-184
-147
-161
-207
-196
-147
-123
-130
-144
-154
-119
67
520
1088
1065
-9
-999
-817
-275
-172
-163
-81
-98
-123
-77
-63
-77
-67
-63
-46
-14
-4
-4
9
21
32
60
91
100
105
133
165
184
203
217
219
226
231
210
175
137
70
0
-42
-84
-151
-217
-214
-177
-165
-163
-182
-214
-200
-161
-140
-123
-116
-130
-135
-140
-158
-151
-116
-109
-123
-107
-74
-60
-63
-86
-116
-105
-79
-79
-84
-86
-98
-102
-88
-86
-86
-79
-95
-119
-109
-86
-77
-95
-121
-112
-81
-74
-81
-67
-60
-77
-79
-60
-56
-53
-35
-7
9
4
7
14
7
-16
-30
-18
-18
-28
-18
2
23
67
193
499
980
1158
390
-670
-766
-242
-46
-39
23
9
-18
21
37
30
49
65
70
84
112
109
91
119
147
130
142
184
210
228
245
259
284
310
322
319
312
310
298
268
217
156
112
74
25
-14
-39
-58
-49
-39
-28
-4
-2
-4
18
30
-7
-39
-18
4
-7
-11
-14
-30
-60
-86
-102
-121
-135
-140
-135
-109
-84
-123
-177
-140
-74
-84
-121
-105
-93
-126
-142
-112
-105
-123
-112
-105
-119
-109
-91
-81
-72
-84
-109
-86
-53
-65
-79
-72
-65
-65
-53
-37
-37
-53
-84
-100
-72
-28
-14
-4
16
9
-25
-37
-25
-21
-7
14
0
-28
-21
11
58
200
534
1032
1277
574
-609
-859
-310
-49
-60
2
44
56
100
109
84
95
114
123
151
168
161
170
189
207
238
268
259
252
284
291
298
326
315
301
336
362
326
280
259
217
144
74
-14
-105
-154
-182
-205
-205
-196
-193
-205
-200
-170
-147
-142
-144
-137
-126
-133
-158
-165
-154
-168
-172
-154
-147
-163
-177
-179
-170
-175
-203
-228
-235
-224
-210
-196
-191
-205
-217
-221
-210
-182
-163
-182
-203
-191
-161
-149
-149
-147
-165
-186
-168
-147
-156
-158
-147
-140
-119
-79
-65
-119
-189
-196
-168
-151
-144
-147
-154
-147
-137
-123
-93
-37
156
562
1046
1062
51
-1067
-983
-399
-242
-170
-60
-102
-123
-67
-60
-81
-84
-67
-46
-42
-35
-14
-7
-25
-35
-16
7
23
39
56
63
72
107
126
107
114
137
121
84
18
-56
-114
-184
-266
-310
-331
-364
-387
-385
-364
-350
-343
-329
-305
-294
-287
-287
-303
-296
-261
-268
-287
-256
-238
-240
-224
-207
-205
-193
-191
-189
-172
-168
-179
-196
-184
-147
-130
-140
-133
-105
-93
-98
-95
-86
-77
-65
-72
-93
-77
-51
-60
-77
-72
-51
-32
-25
-28
-37
-35
-16
-7
-4
0
0
4
30
44
23
4
11
21
18
23
37
46
58
77
179
497
1039
1403
829
-401
-810
-298
-21
-60
2
56
35
37
37
-7
-44
-42
-30
-21
-14
-21
-9
32
53
46
37
53
86
128
168
196
214
247
273
268
252
240
224
184
135
93
44
-14
-70
-119
-135
-123
-123
-142
-156
-154
-126
-91
-72
-72
-63
-39
-18
-7
-9
-4
2
4
9
7
9
28
30
14
16
32
37
14
-30
-56
-42
-11
4
16
21
-2
-32
-30
-2
4
0
9
16
25
42
23
-11
-14
-9
-7
7
7
-2
14
30
23
2
-11
-7
7
7
0
4
23
46
67
72
65
49
32
37
39
35
37
25
14
30
49
70
163
439
924
1342
957
-249
-871
-448
-91
-107
-51
30
9
0
25
39
51
63
65
51
49
58
60
93
126
112
114
161
191
219
263
275
261
296
350
369
371
331
282
280
256
151
23
-58
-88
-116
-151
-170
-179
-172
-142
-119
-135
-147
-123
-98
-74
-51
-44
-44
-32
-30
-21
7
4
-14
-11
-7
2
25
28
2
-14
4
25
25
21
25
30
35
46
51
42
30
30
25
16
35
51
49
42
28
30
51
49
32
44
70
77
77
81
63
39
46
67
72
77
84
70
60
74
70
32
0
0
4
-11
-11
-4
-30
-35
49
273
674
1137
1102
79
-959
-838
-284
-151
-88
35
28
0
25
-9
-65
-30
16
-9
-28
-7
18
42
67
81
98
123
126
112
137
193
228
245
268
289
301
308
296
259
210
149
74
-2
-70
-140
-189
-193
-200
-214
-205
-203
-219
-226
-214
-182
-165
-177
-175
-156
-161
-175
-189
-200
-182
-165
-163
-158
-158
-154
-144
-135
-112
-93
-102
-98
-72
-63
-60
-53
-44
-37
-30
-21
-11
-11
-7
-9
-7
9
25
32
16
0
25
56
53
42
28
25
44
60
63
60
67
93
109
100
93
86
74
74
84
88
81
67
67
65
67
191
546
1095
1394
686
-586
-901
-338
-79
-114
-46
-14
-46
-46
-51
-60
-42
-28
-21
2
23
30
39
51
67
88
114
137
142
158
196
228
259
289
310
336
333
303
291
277
219
140
65
4
-42
-74
-100
-112
-109
-109
-102
-84
-70
-53
-37
-35
-23
-2
4
16
28
32
37
30
-2
-25
-16
-4
-2
-14
-23
-18
-16
-23
-18
-7
-9
-18
-44
-58
-37
-14
-23
-32
-16
-7
-9
11
28
-4
-51
-42
-4
-7
-23
-16
-7
2
16
25
25
18
14
23
35
28
16
9
21
51
79
95
98
77
46
51
63
37
16
30
51
53
53
67
95
207
485
927
1195
609
-551
-920
-408
-100
-105
-32
2
-53
-37
23
25
16
30
42
58
86
105
114
109
109
140
170
177
189
214
240
273
308
336
350
336
303
294
296
268
200
116
56
9
-42
-84
-114
-140
-144
-130
-116
-95
-84
-84
-67
-42
-21
-2
0
-9
-7
9
30
30
7
7
25
28
28
35
28
-4
-32
-35
-18
-4
-9
-23
-7
25
35
14
-2
-7
2
25
42
44
44
51
53
51
56
53
39
35
53
79
91
67
44
65
84
70
58
44
7
0
51
84
77
56
32
21
2
-23
-28
-9
7
0
0
16
11
7
95
357
766
1118
866
-249
-1104
-812
-315
-226
-77
86
18
-49
14
42
7
-4
9
23
32
49
67
81
105
133
156
172
177
207
263
280
291
343
387
404
415
411
390
355
308
245
137
18
-65
-130
-175
-175
-168
-184
-191
-161
-123
-121
-137
-123
-81
-98
-151
-128
-72
-70
-91
-91
-65
-39
-42
-63
-63
-44
-44
-44
-32
-30
-35
-35
-42
-67
-93
-95
-81
-79
-77
-58
-46
-51
-58
-49
-42
-44
-42
-37
-35
-18
7
21
23
16
-2
-11
-4
4
7
4
4
7
18
39
95
294
691
1132
1067
44
-992
-873
-317
-165
-86
51
46
7
25
30
18
21
21
-7
-42
-37
-4
14
21
32
51
74
100
133
165
184
203
231
261
282
280
252
233
217
172
98
2
-95
-168
-205
-226
-242
-254
-261
-254
-231
-210
-196
-184
-172
-156
-130
-112
-100
-93
-95
-91
-72
-67
-86
-98
-100
-93
-81
-79
-77
-79
-84
-74
-56
-51
-53
-53
-56
-49
-37
-30
-25
-28
-30
-21
-16
-25
-49
-86
-102
-74
-42
-23
-11
-18
-39
-51
-44
-39
-56
-77
-77
-60
-46
-42
-39
18
273
719
1100
803
-336
-1076
-703
-221
-144
-67
7
-25
-39
-14
-11
-14
-9
-7
-4
-7
-11
-7
0
4
4
16
30
37
49
72
102
137
175
200
217
228
226
203
172
121
39
-49
-123
-175
-210
-238
-247
-242
-238
-228
-207
-196
-191
-179
-158
-137
-123
-112
-112
-123
-130
-109
-102
-142
-156
-130
-121
-121
-107
-107
-102
-84
-81
-79
-70
-65
-53
-39
-37
-32
-28
-30
-25
-16
-28
-32
-23
-18
-14
-4
2
7
7
7
16
18
16
25
46
60
79
88
77
67
67
65
70
72
67
67
77
86
98
126
256
541
908
1088
565
-476
-845
-383
-46
14
88
107
77
95
121
119
135
154
142
114
93
109
135
137
128
137
161
186
219
240
254
284
319
343
345
343
338
312
275
245
186
93
7
-63
-116
-154
-168
-179
-198
-198
-182
-177
-170
-151
-165
-189
-163
-130
-123
-114
-102
-102
-84
-63
-56
-53
-60
-74
-67
-51
-46
-44
-46
-44
-32
-25
-39
-63
-67
-53
-37
-28
-21
-18
-23
-16
0
7
14
18
11
16
32
39
35
2
-37
-35
-18
-28
-32
-30
-37
-23
14
42
46
35
28
37
42
39
42
37
32
44
60
70
77
91
170
411
794
1123
896
-114
-850
-558
-93
0
65
135
114
114
140
140
142
156
158
165
182
191
189
175
177
198
224
235
240
256
280
301
331
376
401
401
404
413
397
345
275
196
84
-30
-98
-161
-233
-268
-263
-254
-242
-238
-233
-210
-189
-177
-156
-135
-126
-109
-93
-88
-74
-70
-72
-67
-56
-51
-56
-56
-44
-44
-49
-42
-44
-58
-56
-51
-46
-30
-21
-28
-25
-9
-2
-7
-4
4
-2
-25
-32
-21
-18
-21
-14
-2
4
7
7
4
7
14
21
37
56
58
44
30
25
25
16
14
28
32
30
11
-42
-77
-18
149
474
927
1142
499
-677
-1011
-471
-163
-109
37
95
56
74
102
93
98
107
102
95
86
93
114
130
147
161
175
191
205
228
256
273
282
308
338
345
326
310
289
247
186
107
9
-84
-149
-189
-217
-228
-224
-238
-240
-200
-168
-151
-147
-156
-149
-107
-79
-81
-72
-70
-84
-53
-4
-4
-25
-53
-98
-114
-79
-51
-46
-44
-53
-72
-63
-49
-42
-32
-11
21
30
-14
-56
-56
-44
-23
0
14
25
30
39
42
2
-16
14
30
39
72
79
51
21
16
16
16
11
9
23
37
35
42
84
210
495
945
1310
882
-348
-969
-504
-95
-77
-4
65
37
49
79
72
79
107
107
102
121
123
100
112
156
161
114
105
163
196
193
219
273
312
333
333
287
238
233
205
137
81
21
-67
-151
-193
-203
-205
-200
-210
-212
-193
-184
-177
-172
-177
-177
-149
-109
-91
-79
-65
-63
-58
-53
-46
-46
-53
-53
-37
-51
-109
-144
-126
-107
-95
-70
-58
-58
-42
-63
-91
-65
-39
-42
-39
-30
-14
-4
-21
-25
-9
-16
-30
-14
0
-7
-14
-16
-18
-21
-37
-58
-58
-35
-23
-32
-39
-39
-63
-86
-72
-79
-98
-77
-51
-53
-60
-74
-93
-91
-21
186
572
1013
983
51
-875
-766
-259
-135
-126
-46
-37
-51
-18
-2
-11
-4
2
-4
4
11
4
18
56
74
72
77
98
140
182
212
256
273
259
291
343
331
294
291
277
198
98
18
-42
-95
-130
-137
-140
-154
-151
-135
-119
-93
-72
-86
-114
-116
-81
-58
-60
-65
-67
-70
-65
-70
-93
-91
-63
-49
-44
-28
-21
-28
-25
-9
-4
-23
-37
-25
-4
7
14
18
35
51
37
7
16
46
51
42
53
86
86
56
49
60
70
95
112
88
72
84
93
70
42
37
51
67
102
144
147
119
102
77
42
58
98
93
84
107
130
121
107
175
392
780
1223
1144
123
-833
-714
-221
-86
-39
39
21
-18
-14
-14
-4
28
23
-16
-35
-44
-30
16
44
51
72
105
135
165
200
214
214
266
336
333
308
343
362
317
275
238
154
56
-9
-67
-123
-142
-133
-123
-140
-158
-135
-102
-95
-79
-56
-44
-25
-9
-7
0
16
37
18
-16
9
28
-2
-4
-7
-28
-11
7
-11
-14
11
9
4
18
16
9
2
-44
-67
-25
-4
-14
-7
7
7
4
16
32
35
30
30
32
42
49
21
9
58
95
100
105
98
74
67
79
56
28
49
77
72
67
79
81
114
294
677
1137
1240
408
-756
-882
-294
-79
-56
81
105
60
95
102
56
44
49
25
32
70
84
81
88
105
133
147
144
151
149
163
221
263
289
324
340
350
348
305
261
212
123
30
-28
-84
-142
-175
-168
-154
-158
-154
-133
-128
-130
-116
-98
-88
-91
-93
-70
-39
-25
-21
-16
-16
-18
-4
7
7
2
-7
2
32
23
-9
-30
-51
-53
-35
-21
-11
-23
-37
-32
-23
-25
-25
-21
-30
-37
-25
-9
0
-18
-30
-16
4
30
53
60
70
88
79
42
28
37
46
58
74
79
53
23
46
184
492
985
1380
875
-441
-983
-427
-67
-119
-53
11
-23
-9
25
7
-9
2
11
28
39
35
42
74
98
100
112
144
172
189
210
249
273
289
310
322
338
348
315
266
210
128
39
-25
-72
-109
-140
-168
-168
-147
-135
-128
-114
-105
-100
-86
-72
-60
-46
-32
-11
11
2
-21
-9
9
4
-7
-37
-70
-74
-56
-37
-30
-35
-39
-23
-9
-18
-21
-9
2
7
18
28
37
44
32
7
7
25
35
35
44
49
58
65
56
37
11
11
39
35
14
30
37
21
21
32
28
21
35
51
65
67
65
156
434
861
1233
945
-163
-864
-516
-81
-23
23
81
65
67
98
100
88
77
70
77
67
30
4
9
21
32
18
-11
46
172
217
207
235
259
240
238
263
263
242
228
184
107
35
-32
-95
-137
-154
-161
-189
-221
-233
-238
-217
-189
-163
-133
-121
-137
-130
-70
-21
-21
-37
-49
-46
-30
-21
-21
-21
-14
-7
-11
-14
-2
4
2
-7
-7
28
72
49
-16
-4
51
39
18
32
25
21
35
42
35
4
-11
16
23
9
28
37
14
4
-14
-7
67
102
63
56
102
114
77
63
74
74
56
46
49
37
35
79
177
394
770
1142
936
-70
-801
-534
-95
11
81
130
86
95
151
137
100
107
135
151
163
165
158
147
140
156
175
168
161
182
217
240
256
277
305
343
380
383
345
298
249
179
112
60
-16
-93
-109
-105
-123
-151
-170
-170
-151
-130
-128
-123
-81
-60
-77
-74
-65
-91
-116
-109
-93
-74
-51
-46
-53
-56
-35
-14
-28
-46
-30
-9
2
4
7
16
18
9
14
39
42
18
18
37
39
42
51
58
49
32
30
35
16
2
28
35
18
25
30
23
28
25
32
53
51
46
60
67
81
219
548
992
1230
637
-562
-976
-460
-128
-88
2
37
21
21
7
11
32
25
25
32
23
30
67
79
72
95
121
128
137
151
172
193
217
259
294
317
319
303
280
242
184
102
-21
-128
-170
-193
-221
-224
-228
-240
-226
-200
-182
-156
-137
-128
-95
-67
-88
-100
-63
-32
-16
4
4
0
9
-11
-37
-7
23
18
4
7
16
11
7
11
11
-9
-25
-7
-7
-46
-53
-32
-35
-28
-4
0
7
4
21
70
51
0
28
58
44
44
56
51
58
77
95
114
168
369
812
1352
1282
128
-887
-642
-98
-32
32
156
121
91
123
130
151
189
184
170
184
207
224
224
198
203
240
252
252
277
291
303
338
371
401
404
385
385
348
261
214
161
51
-42
-102
-140
-151
-172
-186
-168
-158
-149
-133
-175
-217
-168
-119
-119
-112
-93
-79
-67
-67
-74
-65
-58
-67
-58
-35
-32
-44
-74
-100
-86
-56
-44
-51
-53
-42
-30
-28
-30
-25
-18
-25
-21
0
2
-2
-4
-4
-4
-16
-28
-4
11
-2
-2
18
16
7
-4
-25
-46
-65
-81
-72
-46
-44
-42
-14
53
245
658
1153
1097
86
-854
-698
-184
-79
-58
37
21
-37
-21
2
4
30
56
51
58
79
79
100
135
123
121
177
212
210
228
266
291
317
345
357
371
399
394
348
277
198
119
37
-30
-79
-121
-156
-168
-165
-168
-168
-149
-126
-114
-102
-79
-56
-79
-119
-105
-86
-88
-67
-42
-49
-49
-25
-11
-23
-25
-14
4
21
4
-4
9
11
7
30
51
37
-4
-30
-23
-30
-39
-18
-2
-2
2
18
32
32
30
44
60
56
37
39
51
60
100
119
109
114
105
86
95
105
91
81
81
93
98
105
156
319
646
1086
1160
338
-646
-679
-184
9
16
81
107
84
102
135
140
142
130
109
95
88
100
126
133
121
102
123
172
191
203
231
242
254
287
315
329
312
261
240
235
175
81
-11
-88
-128
-165
-198
-196
-191
-193
-186
-184
-172
-149
-144
-130
-98
-72
-65
-67
-67
-67
-77
-65
-42
-49
-58
-35
-16
-18
-16
-7
-23
-51
-37
-7
-4
-16
-18
-14
4
28
42
32
11
18
46
72
67
42
46
74
72
56
56
56
42
44
67
84
72
49
51
72
95
121
137
130
112
100
107
98
67
42
37
53
67
72
84
98
165
397
831
1275
1114
44
-817
-579
-81
16
49
126
123
121
144
147
142
137
119
119
142
151
158
184
205
196
182
200
233
254
282
324
355
364
380
420
434
404
380
343
245
151
93
25
-58
-135
-189
-193
-179
-170
-163
-147
-130
-137
-135
-98
-74
-84
-72
-49
-39
-30
-18
-16
-7
0
-4
2
11
2
9
21
-14
-44
-46
-63
-46
-14
-23
-39
-28
-21
-30
-51
-53
-44
-79
-95
-67
-44
-53
-67
-56
-30
-23
-21
-4
14
2
-23
-2
32
37
30
23
35
53
65
56
18
4
46
70
60
58
84
147
348
756
1226
1198
179
-885
-787
-200
-32
21
140
151
142
177
170
142
144
147
149
172
172
147
121
130
158
163
165
179
193
219
247
261
277
303
326
333
322
326
319
256
168
88
2
-77
-119
-147
-184
-200
-203
-212
-200
-168
-149
-144
-121
-88
-77
-79
-70
-35
-16
-30
-35
-25
-16
-7
7
16
11
4
9
25
35
37
32
30
39
39
28
37
37
21
25
46
53
58
60
53
51
65
74
65
58
56
65
79
79
58
30
28
49
60
72
72
35
14
39
56
37
16
23
35
23
18
37
51
79
221
562
1086
1401
768
-464
-831
-303
-18
-32
35
65
30
56
91
79
79
98
100
93
95
98
95
91
98
116
140
149
156
179
210
235
261
268
263
282
301
303
303
282
212
119
37
-28
-74
-114
-168
-198
-189
-182
-193
-217
-219
-193
-170
-161
-137
-116
-112
-112
-112
-105
-81
-72
-65
-44
-44
-53
-37
-23
-23
-23
-21
-7
-2
-9
0
16
21
16
4
16
46
44
23
35
51
44
56
79
65
39
28
42
60
49
35
51
65
58
51
63
72
67
72
88
107
109
105
107
91
60
44
46
53
53
60
60
46
63
149
326
660
1088
1030
60
-838
-693
-205
-81
-51
23
18
7
35
42
39
49
37
18
44
65
56
51
72
91
105
121
151
177
200
224
252
284
326
348
336
338
343
303
254
212
130
39
-21
-60
-93
-116
-135
-135
-109
-93
-91
-84
-77
-67
-63
-74
-77
-60
-39
-42
-46
-28
-11
0
-2
-9
-21
-28
-16
-11
-21
-21
-16
-7
7
-11
-53
-56
-28
-16
-9
-7
-7
14
28
16
9
9
9
23
44
51
53
51
39
32
46
58
35
-16
-39
-16
0
-11
-18
-7
16
44
63
58
46
46
42
30
32
42
46
49
42
42
51
46
130
434
889
1181
677
-467
-927
-467
-137
-128
-56
-9
-39
-32
-18
-30
-23
-25
-44
-42
-25
-11
0
21
32
42
72
95
95
112
130
151
196
252
282
289
308
333
319
282
224
142
58
-21
-100
-154
-168
-165
-168
-165
-161
-147
-119
-112
-109
-86
-65
-46
-28
-23
-14
7
16
4
-18
-35
-23
0
0
-9
0
4
-18
-30
-9
0
-7
4
21
21
23
35
39
39
42
46
65
74
60
58
79
77
65
84
93
81
88
95
81
63
39
28
56
84
72
65
72
63
49
51
39
42
72
79
77
86
98
123
273
642
1114
1233
453
-721
-934
-359
-84
-25
100
116
63
63
72
70
79
98
107
112
128
119
95
116
163
191
210
231
256
270
287
331
387
418
443
460
469
499
488
376
242
161
84
-9
-100
-151
-149
-149
-154
-144
-144
-163
-182
-196
-191
-163
-123
-98
-98
-88
-56
-51
-51
-25
-37
-53
-16
2
-18
-4
32
32
-2
-11
21
39
7
-11
14
9
-23
0
32
2
-28
-7
30
30
16
30
44
44
44
44
30
28
60
93
105
100
86
86
88
84
93
114
93
53
79
119
116
130
245
523
936
1258
882
-270
-913
-497
-70
-14
79
142
91
98
144
140
107
67
44
51
74
88
93
102
126
140
149
177
207
228
245
256
277
319
352
371
378
373
362
326
259
170
77
-11
-79
-123
-158
-170
-168
-161
-147
-133
-133
-128
-109
-88
-72
-74
-65
-39
-21
-18
-14
-9
-4
2
-2
-16
-18
-11
-9
-2
0
2
4
2
-2
9
21
23
23
21
23
28
25
21
0
-32
-28
9
25
18
14
14
16
9
-18
-46
-42
-35
-32
-14
0
18
154
457
829
987
439
-609
-978
-516
-172
-63
91
128
53
53
91
88
88
100
102
119
135
137
133
142
154
161
170
175
193
226
245
268
298
317
329
336
329
319
298
240
156
63
-35
-123
-182
-224
-256
-275
-273
-261
-252
-247
-266
-303
-303
-266
-252
-254
-261
-268
-245
-214
-203
-196
-191
-182
-158
-140
-128
-119
-121
-123
-105
-86
-79
-74
-72
-70
-56
-37
-28
-25
-28
-25
-9
4
9
11
9
7
2
-9
0
21
28
44
65
63
58
63
53
49
58
67
74
74
77
88
109
179
406
768
1044
773
-172
-838
-579
-137
2
107
193
175
168
182
149
114
133
163
168
161
161
175
200
221
228
207
182
210
270
296
301
331
371
401
425
429
425
404
352
282
210
133
46
-32
-95
-149
-184
-193
-198
-207
-200
-182
-170
-154
-144
-142
-137
-119
-93
-86
-86
-77
-63
-58
-53
-44
-39
-42
-42
-30
-21
-21
-23
-21
-23
-18
-11
-25
-35
-28
-42
-67
-63
-81
-130
-130
-102
-86
-63
-35
-28
-25
-21
-23
-28
-58
-91
-81
-63
-53
-44
-37
-28
35
235
581
924
840
-25
-920
-861
-352
-144
-46
67
63
42
79
86
74
91
100
95
102
114
121
137
149
151
163
182
196
217
249
284
319
350
373
404
427
422
387
343
294
217
119
14
-93
-170
-193
-196
-196
-205
-205
-200
-193
-177
-158
-158
-151
-119
-88
-74
-84
-102
-119
-144
-151
-137
-126
-119
-119
-140
-151
-140
-128
-126
-130
-123
-98
-84
-93
-77
-60
-67
-51
-32
-35
-46
-51
-37
-14
0
21
39
30
18
35
46
37
28
18
18
51
72
51
42
79
219
541
959
1116
481
-653
-1006
-495
-163
-77
86
156
130
163
182
163
168
189
200
217
228
231
231
240
263
289
310
329
343
352
380
429
471
485
476
483
506
504
467
408
315
203
107
25
-44
-91
-121
-135
-128
-114
-107
-100
-93
-84
-63
-46
-42
-53
-53
-39
-35
-46
-60
-88
-114
-93
-72
-81
-95
-109
-135
-168
-170
-149
-149
-158
-154
-140
-126
-114
-107
-107
-102
-84
-77
-77
-65
-58
-63
-51
-37
-35
-39
-46
-44
-21
9
21
14
11
9
14
25
18
-16
-42
-35
-14
2
16
51
207
537
950
1130
509
-623
-936
-399
-74
-16
98
130
93
109
119
105
116
130
128
137
156
175
186
191
207
217
207
217
252
282
305
338
378
420
443
462
474
455
415
376
305
212
133
56
-25
-74
-93
-109
-116
-112
-119
-126
-112
-88
-86
-84
-60
-56
-70
-53
-30
-37
-58
-88
-121
-123
-112
-109
-107
-100
-91
-84
-81
-84
-84
-81
-72
-60
-70
-91
-79
-53
-53
-65
-56
-37
-37
-51
-42
-18
-9
-21
-49
-65
-53
-35
-28
-28
-28
-23
-9
0
4
9
9
16
35
46
72
88
49
28
46
44
30
35
51
63
49
44
63
81
172
439
810
1060
728
-270
-875
-513
-86
0
107
165
72
53
116
133
133
114
74
74
93
91
107
130
130
144
165
193
235
254
263
308
355
390
422
418
387
373
362
326
268
184
95
25
-37
-91
-133
-168
-179
-175
-177
-184
-191
-196
-189
-163
-147
-140
-135
-130
-114
-93
-88
-86
-79
-77
-72
-60
-39
-25
-58
-86
-53
-30
-30
-25
-23
-23
-16
-4
2
9
14
16
2
-11
-4
11
11
0
4
21
28
21
-7
-37
-37
-4
7
0
14
18
-16
-23
0
4
0
9
21
30
32
25
21
30
56
84
95
77
65
67
72
72
70
70
70
72
86
95
81
81
121
242
516
889
1123
710
-315
-812
-399
-14
35
100
154
126
123
149
147
140
142
135
135
144
144
147
147
140
147
179
205
214
228
259
291
298
303
331
343
310
305
315
275
214
161
77
-21
-88
-133
-170
-193
-207
-210
-212
-210
-184
-158
-151
-142
-126
-105
-88
-86
-79
-58
-46
-39
-35
-32
-30
-42
-67
-84
-63
-42
-44
-49
-46
-39
-18
-7
-16
-18
-7
-7
-14
-11
-2
-2
-4
2
16
25
23
25
30
32
42
46
44
39
39
51
63
49
7
-32
-42
-28
-21
-14
-7
-16
-14
7
28
39
35
7
-7
2
9
11
11
2
2
18
32
30
11
9
77
291
679
1100
1074
128
-915
-861
-298
-142
-74
72
79
53
105
121
93
105
114
109
128
147
140
151
182
207
226
240
259
284
322
369
411
443
478
516
544
551
544
506
427
333
249
142
37
-37
-100
-137
-144
-149
-170
-200
-212
-189
-156
-142
-142
-128
-105
-93
-81
-60
-46
-39
-35
-30
-21
-11
-4
-2
-7
-7
4
11
7
4
7
14
25
35
35
21
2
2
18
28
21
21
25
28
32
35
37
46
60
84
84
58
39
39
30
16
18
32
32
9
-7
7
30
88
319
747
1160
1025
-70
-1104
-917
-333
-207
-114
35
-18
-121
-95
-49
-49
-32
-4
4
11
28
39
63
91
105
126
158
189
219
252
287
331
378
422
467
495
495
467
429
378
287
168
58
-25
-91
-137
-158
-161
-158
-154
-147
-133
-116
-105
-91
-77
-65
-51
-39
-37
-44
-56
-51
-37
-35
-30
-11
-14
-35
-39
-32
-25
-21
-18
-21
-14
-7
0
7
16
16
16
16
23
32
37
32
14
-16
-28
-16
-7
-4
9
23
39
53
53
49
51
37
18
28
42
42
35
39
60
88
158
390
826
1296
1193
74
-941
-726
-175
-81
-25
88
60
21
39
39
35
44
23
0
14
35
46
53
53
58
81
112
142
177
212
238
268
312
364
397
415
418
408
383
333
261
168
53
-37
-86
-114
-133
-161
-207
-224
-191
-163
-151
-137
-137
-140
-119
-93
-81
-77
-79
-65
-44
-35
-23
-18
-25
-21
-7
0
0
0
-4
2
14
18
21
18
11
18
35
30
2
-16
-14
-7
-14
-23
-30
-60
-84
-63
-42
-37
-30
-25
-28
-18
-11
-9
-11
-16
-14
7
32
51
51
37
28
35
39
30
21
18
23
30
37
39
44
98
303
710
1195
1237
238
-917
-864
-254
-121
-121
-18
-35
-77
-37
-16
-25
-18
-7
-7
7
25
28
25
37
46
53
81
105
109
123
147
172
205
252
289
312
326
329
308
263
203
123
28
-56
-109
-151
-177
-182
-189
-184
-163
-151
-140
-116
-102
-91
-74
-67
-60
-44
-28
-21
-23
-28
-18
-7
-4
-2
4
9
14
16
14
14
0
-35
-37
-11
-7
-7
2
4
11
23
28
30
32
35
46
56
58
56
53
58
53
30
21
32
37
42
49
53
58
63
63
67
79
84
81
81
77
84
95
98
93
91
91
88
86
93
105
109
119
133
133
128
116
91
77
86
95
93
91
91
93
107
137
247
513
915
1258
966
-140
-850
-504
-107
-77
-4
77
42
21
39
37
25
35
46
18
-14
-4
-4
-25
-9
14
28
60
102
135
158
186
226
270
312
348
371
373
357
329
287
235
158
58
-23
-67
-95
-121
-140
-151
-144
-126
-109
-105
-112
-114
-98
-77
-60
-44
-42
-44
-32
-16
-4
4
2
-2
2
14
23
28
21
18
25
37
39
35
32
30
30
42
51
39
7
-25
-30
-28
-39
-53
-53
-46
-39
-23
-9
-7
-9
-4
7
21
25
25
28
28
35
46
49
49
56
58
53
49
44
42
39
42
44
44
28
9
7
2
0
14
30
28
14
7
7
9
4
-4
-7
-4
0
14
21
16
28
88
273
614
980
992
228
-712
-754
-249
-39
-4
70
70
51
86
91
65
74
93
98
98
81
70
95
119
128
147
170
193
224
256
287
312
343
378
411
434
443
446
429
387
329
259
168
65
-7
-46
-81
-98
-93
-102
-105
-84
-84
-88
-67
-58
-39
-2
-2
2
37
-4
-60
-18
-14
-86
-86
-21
2
-2
-2
2
11
7
-16
-21
-2
4
4
-4
-21
-30
-42
-65
-65
-21
7
-21
-42
-25
-46
-93
-72
-46
-74
-100
-93
-79
-77
-60
-28
-39
-84
-93
-65
-42
-44
-70
-74
-42
-28
-35
-23
-32
-46
11
60
23
18
60
49
16
23
44
28
18
53
67
53
81
189
408
801
1347
1298
65
-929
-523
-23
-154
-98
112
72
37
105
109
79
74
77
77
109
142
135
128
149
177
163
161
226
275
291
310
336
380
411
408
392
394
425
439
392
287
163
49
-21
-63
-109
-126
-102
-98
-151
-186
-149
-128
-130
-100
-72
-53
-16
0
-42
-65
-37
-21
-14
18
39
21
-14
-23
0
21
0
-42
-32
9
-7
-58
-58
-35
-28
-30
-58
-79
-58
-58
-93
-102
-100
-91
-63
-77
-86
-39
-37
-84
-81
-70
-58
4
28
-30
-32
21
14
-44
-79
-79
-65
-70
-98
-74
-25
-25
-2
130
441
980
1373
805
-548
-1146
-618
-191
-158
-65
37
23
7
30
44
60
84
84
88
98
84
86
109
149
182
156
154
228
284
282
259
275
338
378
387
427
464
457
413
326
221
109
-7
-102
-163
-182
-205
-240
-247
-247
-235
-189
-191
-231
-193
-144
-161
-149
-107
-105
-116
-135
-147
-105
-67
-84
-95
-88
-79
-39
-25
-46
-42
-51
-58
-16
2
-16
-11
18
30
4
-4
16
51
32
-32
-16
56
74
67
74
74
53
30
39
44
-7
-37
9
51
28
-4
7
84
322
808
1378
1347
186
-987
-871
-254
-114
-105
-11
-4
-18
21
30
-4
7
56
65
65
100
102
81
121
168
170
156
165
191
198
224
287
333
373
415
432
432
453
460
387
266
189
121
0
-98
-107
-102
-137
-151
-140
-142
-126
-91
-79
-77
-65
-60
-60
-67
-86
-63
-21
-42
-67
-25
30
32
-14
-11
25
11
11
35
18
16
14
-16
-2
21
-39
-93
-53
-9
-16
-11
7
7
4
-9
-30
-23
4
21
30
63
93
86
74
74
65
44
28
42
60
56
63
95
112
102
261
791
1469
1515
364
-836
-712
-121
-56
-77
32
32
-14
-4
4
9
18
11
35
60
49
46
84
109
86
86
137
170
186
207
198
198
254
291
266
275
338
355
326
294
228
149
44
-88
-149
-154
-175
-191
-177
-165
-149
-126
-144
-156
-119
-98
-100
-74
-46
-42
-42
-44
-49
-56
-79
-63
-23
-42
-51
-44
-72
-70
-37
-49
-63
-44
-37
-37
-30
-51
-63
-39
-42
-49
-21
4
-4
-37
-37
7
37
23
16
35
14
-23
-21
-7
2
35
70
86
86
79
70
67
60
46
51
74
91
88
70
121
331
693
1097
1139
324
-681
-719
-179
28
49
130
156
135
142
128
114
154
193
177
158
175
191
189
196
217
221
198
198
245
289
303
303
301
324
376
413
418
399
362
305
242
165
72
-42
-142
-200
-233
-249
-252
-263
-270
-254
-242
-235
-221
-203
-184
-163
-149
-135
-126
-119
-105
-95
-86
-70
-88
-126
-109
-74
-109
-126
-95
-84
-79
-67
-67
-88
-119
-123
-105
-95
-91
-81
-86
-95
-81
-60
-81
-98
-72
-67
-79
-49
-16
-39
-67
-70
-79
-74
-46
-28
-37
-46
-49
-39
-7
-11
-60
-65
-42
-30
-11
4
7
16
44
142
394
756
1015
705
-298
-962
-635
-170
-32
98
186
147
149
198
189
168
198
228
219
219
245
252
238
242
273
280
266
289
340
373
401
425
439
467
499
520
523
504
471
413
315
212
121
16
-72
-137
-182
-191
-191
-191
-182
-170
-161
-142
-128
-130
-130
-114
-95
-93
-114
-123
-116
-112
-100
-88
-91
-81
-65
-63
-56
-46
-44
-42
-32
-28
-30
-30
-21
-11
0
4
9
7
11
25
25
9
2
7
11
16
25
35
37
14
-2
18
35
30
46
74
79
91
95
74
51
21
-7
-2
-2
-23
-30
-25
-14
14
49
158
474
906
1121
607
-520
-1039
-607
-249
-165
2
79
30
42
86
79
79
102
112
107
105
100
105
123
135
144
170
191
198
224
254
270
301
340
350
348
362
362
340
305
249
156
32
-77
-154
-214
-252
-259
-270
-280
-256
-228
-224
-210
-193
-182
-158
-137
-133
-142
-156
-144
-116
-100
-84
-67
-70
-77
-58
-44
-49
-51
-46
-42
-30
-14
-2
0
-7
0
14
21
30
32
28
32
42
51
60
37
-18
-30
0
23
39
56
60
60
53
42
39
37
28
30
42
51
58
63
65
102
268
621
1088
1293
611
-602
-927
-357
-37
0
100
144
130
156
175
149
140
151
140
140
158
151
142
165
189
203
217
242
275
291
315
352
376
383
399
427
450
450
427
380
308
212
109
14
-67
-123
-161
-168
-161
-186
-238
-240
-214
-212
-193
-161
-161
-163
-142
-119
-102
-91
-79
-70
-72
-70
-49
-63
-98
-86
-56
-46
-37
-63
-102
-81
-42
-39
-32
-4
-11
-67
-91
-65
-44
-39
-35
-42
-35
-7
-7
-21
-4
16
16
18
23
21
30
42
25
14
21
30
56
86
91
84
79
67
72
79
67
63
67
65
67
72
72
93
189
441
861
1170
749
-369
-936
-504
-86
-25
46
105
74
74
114
123
107
86
81
105
128
140
154
163
149
147
144
128
135
158
175
205
254
291
319
350
373
371
362
340
270
186
107
25
-46
-114
-161
-172
-172
-175
-165
-144
-137
-128
-109
-100
-88
-70
-60
-60
-67
-77
-63
-39
-46
-58
-37
-16
-11
-16
-49
-74
-58
-37
-37
-32
-39
-49
-35
-11
-4
-9
-9
-4
0
4
25
39
25
18
37
39
14
-14
-23
-14
-4
7
23
25
4
2
32
39
30
42
49
42
44
58
60
46
42
53
79
102
105
86
77
88
95
91
86
81
65
51
56
70
65
46
116
376
759
1048
721
-329
-945
-572
-154
-79
11
65
11
7
46
42
2
-39
-42
-9
2
11
28
32
39
60
79
81
74
81
105
140
179
221
254
268
289
312
308
268
212
147
74
-11
-107
-182
-212
-231
-249
-245
-231
-233
-228
-203
-191
-184
-151
-123
-137
-147
-123
-105
-95
-84
-77
-67
-67
-63
-35
-16
-28
-28
-11
-7
-7
0
4
7
7
18
30
30
35
46
46
35
25
2
-11
4
14
4
-4
-7
-21
-25
-14
-9
-4
4
18
30
32
32
37
37
39
49
60
65
72
72
70
72
77
81
81
84
86
74
60
46
46
65
84
95
84
65
63
58
49
44
25
9
18
14
-2
2
16
49
191
495
887
1058
469
-560
-833
-348
-58
-18
70
93
63
88
119
102
88
100
109
105
100
105
102
77
67
105
140
156
182
212
235
270
317
355
378
399
422
434
420
392
343
266
184
109
35
-25
-67
-102
-128
-126
-109
-112
-140
-161
-144
-112
-93
-86
-88
-77
-53
-39
-25
-14
-18
-21
-4
4
11
16
9
4
11
21
30
35
18
18
39
30
21
30
18
-2
18
42
16
-28
-44
-37
-23
-14
-2
2
-16
-14
9
16
0
-35
-65
-58
-56
-70
-58
-51
-67
-63
-44
-35
-30
-37
-56
-46
-25
-28
-35
-30
-32
-28
-4
28
46
32
16
25
39
39
28
18
25
37
46
53
60
67
109
291
639
1046
1121
359
-656
-768
-261
-35
7
95
107
86
123
137
100
95
123
133
140
161
165
163
179
203
221
249
263
277
303
338
371
385
380
404
441
455
460
450
401
338
268
182
91
2
-65
-102
-121
-126
-130
-137
-126
-107
-100
-88
-67
-65
-67
-58
-42
-21
-9
-11
-4
11
16
18
16
7
11
11
-16
-37
-35
-30
-25
-23
-18
-18
-28
-35
-37
-58
-77
-77
-84
-95
-93
-86
-74
-70
-116
-165
-130
-91
-107
-119
-100
-86
-81
-65
-63
-77
-74
-53
-51
-51
-46
-72
-116
-121
-88
-65
-49
-32
-37
-46
-42
-39
-42
-46
-49
-44
-32
-21
-18
-21
7
161
497
929
1123
516
-642
-1037
-539
-212
-158
-28
32
0
23
49
35
42
65
63
49
51
65
79
100
121
149
182
196
207
245
287
319
369
408
420
467
530
534
499
450
385
310
224
126
18
-93
-163
-168
-163
-163
-158
-158
-158
-137
-123
-114
-86
-72
-74
-44
-7
-9
-14
-11
-9
30
63
44
21
28
28
11
14
25
2
-25
-11
7
2
-4
0
21
39
18
-37
-60
-42
-49
-65
-58
-51
-46
-49
-60
-49
-28
-28
-30
-9
0
-14
-9
0
-23
-53
-44
-2
37
53
37
30
39
28
23
37
32
25
37
44
46
53
42
46
214
572
976
1088
383
-698
-887
-326
-32
14
100
98
51
72
112
133
137
130
140
156
165
168
172
203
238
240
224
193
175
207
254
291
336
369
399
441
453
448
443
406
352
301
217
95
-4
-67
-112
-140
-144
-135
-126
-119
-105
-93
-86
-72
-56
-49
-42
-30
-16
0
11
9
9
28
37
21
14
30
49
46
39
39
23
-18
-39
-30
-25
-28
-21
-7
2
9
11
16
23
21
16
25
32
18
2
-14
-32
-23
-7
-21
-30
-11
4
-2
-9
-21
-46
-56
-37
-32
-44
-42
-25
-18
-21
-25
-18
-21
-35
-30
-14
-9
0
2
4
39
156
408
770
1051
710
-310
-896
-534
-114
-30
49
121
102
105
130
119
109
121
128
128
128
105
98
130
163
165
168
191
231
259
277
319
362
383
411
432
429
432
427
399
364
303
217
128
44
-30
-74
-98
-126
-149
-142
-130
-123
-112
-93
-77
-74
-63
-39
-23
-16
-16
-18
-9
7
14
21
28
28
28
32
35
39
44
39
32
39
46
53
56
39
30
39
51
46
32
21
30
42
44
42
14
-18
-11
14
16
0
-32
-53
-35
-16
-32
-67
-86
-88
-98
-88
-60
-44
-37
-37
-44
-58
-72
-79
-93
-107
-112
-109
-107
-109
-112
-107
-70
67
352
717
889
373
-642
-1011
-569
-240
-165
-60
-11
-35
-25
-4
0
7
21
32
53
67
70
88
107
128
158
172
163
182
233
273
291
326
380
427
457
495
509
469
420
378
310
226
119
4
-63
-81
-100
-135
-172
-182
-158
-156
-158
-135
-121
-116
-98
-79
-58
-44
-42
-23
-9
-16
-11
2
7
18
30
25
28
39
37
32
35
44
49
51
51
51
53
53
65
63
44
46
67
65
60
67
70
74
81
79
72
74
84
95
91
79
79
79
77
98
126
121
105
86
86
79
28
-7
-11
-30
-32
-25
-35
-44
-39
-9
126
434
829
1001
441
-630
-1006
-520
-179
-119
-4
51
30
51
63
53
67
98
121
114
81
91
165
203
172
177
231
240
224
254
305
338
373
397
397
427
471
478
462
432
371
284
193
95
-2
-84
-130
-151
-156
-149
-144
-147
-137
-128
-140
-144
-121
-112
-112
-112
-98
-67
-63
-70
-60
-44
-32
-28
-46
-81
-81
-63
-46
-28
-37
-51
-42
-30
-23
-9
-9
-16
-9
9
16
21
25
14
11
30
39
28
9
11
35
53
70
77
60
58
67
58
56
63
56
44
60
86
86
74
121
324
710
1116
1086
186
-880
-922
-359
-137
-70
53
65
18
21
53
67
53
51
60
72
86
95
105
119
133
151
182
203
217
247
289
322
364
394
401
415
439
443
429
390
305
205
100
-9
-105
-175
-210
-217
-214
-212
-212
-207
-186
-165
-151
-126
-107
-102
-95
-77
-63
-56
-46
-37
-30
-16
-4
-4
-7
-7
0
7
7
9
4
-18
-35
-35
-32
-32
-30
-28
-23
-14
2
16
7
-4
9
23
21
23
23
23
21
18
21
39
60
72
79
77
65
37
-25
-81
-65
-35
-46
-67
-58
-37
-18
72
345
791
1228
1032
-112
-983
-663
-156
-107
-72
14
-2
-4
30
25
18
42
53
39
32
37
37
37
44
51
49
46
51
67
98
126
149
189
238
273
296
303
301
284
245
177
84
-32
-116
-154
-198
-238
-233
-233
-247
-219
-184
-184
-170
-151
-147
-123
-95
-98
-121
-147
-158
-133
-107
-98
-86
-81
-81
-63
-42
-37
-37
-37
-32
-16
-2
-2
0
4
7
11
21
30
37
35
35
49
56
63
65
42
18
4
-2
9
18
4
2
16
23
32
51
51
60
86
95
84
70
63
70
81
86
79
67
77
86
95
137
273
555
936
1160
691
-392
-882
-436
-49
9
98
156
123
126
142
128
137
151
119
79
86
114
128
137
149
158
165
179
193
184
198
247
280
303
348
399
422
401
350
310
256
177
93
7
-77
-130
-158
-186
-203
-193
-186
-189
-184
-186
-205
-196
-163
-149
-140
-123
-119
-107
-86
-77
-79
-77
-72
-58
-39
-51
-84
-88
-63
-44
-44
-53
-60
-53
-35
-35
-37
-18
-14
-25
-23
-14
-16
-23
-46
-77
-77
-53
-51
-58
-65
-72
-60
-39
-44
-53
-56
-67
-67
-49
-53
-74
-88
-84
-67
-53
-46
-42
-37
-49
-49
-14
21
42
46
46
51
49
39
42
46
46
56
60
63
70
81
109
226
474
822
1069
703
-305
-859
-499
-95
-7
70
126
112
119
133
114
107
116
114
119
119
105
112
144
168
175
168
147
147
191
231
249
282
319
333
359
401
418
397
357
303
247
182
98
7
-63
-98
-114
-128
-135
-135
-128
-114
-100
-81
-67
-70
-56
-25
-16
-9
2
-4
-7
11
14
2
7
0
-4
11
30
32
32
28
28
32
42
51
49
42
49
63
67
63
58
56
63
77
88
98
81
56
65
86
91
88
84
72
65
74
88
95
91
70
37
21
32
30
-35
-91
-65
-32
-39
-53
-70
-74
-56
-28
2
18
11
0
2
4
-2
-25
-37
-37
-49
-58
-49
-44
-37
39
266
621
990
943
37
-896
-789
-254
-93
-39
60
58
44
98
116
86
93
123
130
137
149
151
158
182
203
221
238
254
273
296
326
364
401
434
471
497
497
471
443
418
359
275
184
84
-32
-126
-161
-163
-182
-189
-177
-161
-142
-130
-119
-98
-86
-84
-79
-79
-79
-60
-49
-42
-28
-23
-21
-11
-9
-7
0
4
11
18
14
7
11
18
25
25
23
28
42
42
39
44
44
51
56
51
46
42
37
35
28
21
21
28
32
35
39
39
25
-4
-32
-30
-23
-42
-51
-32
-7
11
11
-11
-46
-81
-77
-63
-60
-60
-58
-51
-46
-49
-32
67
329
728
1076
843
-214
-1004
-705
-212
-107
-2
102
74
53
86
102
107
123
130
130
140
161
177
191
200
207
219
242
273
282
266
252
284
340
383
415
434
441
443
429
392
329
242
123
2
-65
-105
-158
-193
-189
-177
-168
-154
-156
-161
-140
-116
-109
-98
-91
-86
-93
-105
-98
-79
-102
-156
-161
-128
-121
-116
-114
-133
-137
-116
-102
-107
-109
-109
-105
-95
-88
-81
-81
-84
-77
-67
-60
-60
-74
-88
-70
-44
-46
-67
-77
-70
-60
-63
-63
-67
-81
-81
-70
-67
-63
-51
-60
-79
-95
-100
-88
-77
-65
-42
-16
-7
-7
-4
-4
-11
-11
4
21
14
-2
0
9
28
88
252
558
917
987
308
-674
-859
-373
-93
-35
56
81
53
77
109
109
114
128
133
142
156
168
179
191
210
224
231
242
266
277
291
322
359
394
429
448
462
478
471
441
399
340
254
154
56
-28
-72
-88
-102
-109
-102
-91
-79
-79
-65
-42
-35
-28
-16
-23
-28
-16
-14
-11
4
2
-7
7
16
18
23
25
30
39
35
25
2
-25
-21
0
-7
-7
11
9
2
11
23
4
-39
-58
-39
-37
-58
-67
-60
-46
-35
-30
-35
-37
-39
-39
-35
-37
-49
-53
-56
-60
-49
-28
-35
-56
-51
-37
-32
-28
-30
-39
-39
-25
-11
-9
-4
9
4
16
140
406
742
943
551
-392
-871
-520
-140
-28
72
135
119
121
140
142
154
168
172
177
177
175
189
217
238
242
235
245
275
303
312
324
333
333
357
401
434
441
427
404
373
324
252
161
67
-4
-44
-67
-86
-95
-114
-135
-119
-93
-88
-81
-72
-63
-49
-35
-18
-9
-18
-25
-7
7
7
2
-2
4
16
23
28
21
11
25
32
28
30
37
32
35
42
49
56
51
42
49
65
67
65
63
60
60
58
56
51
23
-4
4
23
25
4
-37
-53
-37
-21
-7
0
-2
-2
-14
-30
-32
-30
-44
-67
-86
-86
-70
-65
-65
-49
11
200
534
887
896
147
-801
-878
-376
-128
-49
56
67
53
84
93
91
105
119
116
98
74
77
102
119
133
154
175
196
221
252
282
312
352
390
408
418
439
450
439
415
359
277
196
112
25
-51
-102
-126
-154
-200
-205
-177
-168
-156
-133
-123
-112
-109
-130
-130
-105
-91
-81
-72
-65
-56
-44
-51
-56
-46
-32
-30
-39
-32
-7
-4
-18
-14
-7
-2
-4
-9
7
32
35
37
35
21
23
30
28
32
53
58
51
51
46
37
30
7
-14
14
63
72
46
42
46
25
7
14
14
4
0
-7
-14
-4
51
261
637
971
805
-142
-1008
-894
-427
-254
-114
11
-7
-14
16
4
9
51
74
70
67
74
91
112
140
175
184
179
205
240
268
294
322
355
392
429
462
483
476
457
432
369
284
196
91
-7
-74
-109
-119
-133
-149
-142
-119
-109
-100
-91
-86
-67
-39
-35
-30
-23
-35
-25
9
23
21
16
4
9
32
35
23
18
-2
-23
-7
7
-11
-58
-100
-77
-37
-37
-44
-46
-60
-65
-37
-9
-11
-63
-102
-81
-60
-70
-67
-53
-51
-39
-23
-4
14
25
32
25
21
28
25
14
9
7
-4
-18
-21
-16
0
91
329
691
1008
838
-98
-899
-705
-221
-114
-65
37
37
18
49
60
46
53
74
81
79
95
100
74
72
105
114
112
135
156
184
231
249
235
263
319
348
362
373
350
303
254
193
107
16
-53
-105
-140
-144
-142
-158
-158
-135
-121
-119
-107
-88
-81
-84
-77
-65
-58
-51
-32
-28
-42
-30
-4
0
0
4
2
7
16
16
14
16
18
18
21
25
32
37
35
42
46
46
39
16
0
-9
-25
-25
-2
9
4
0
2
9
16
28
39
53
56
46
51
53
49
28
-16
-30
0
18
4
0
16
81
284
611
924
878
86
-826
-836
-326
-105
-25
84
81
42
74
100
81
84
100
93
72
58
67
88
107
119
140
158
172
196
212
238
275
301
326
366
392
408
399
333
233
172
142
74
-16
-93
-147
-175
-182
-182
-193
-196
-177
-156
-135
-119
-112
-107
-95
-84
-72
-56
-56
-91
-109
-86
-63
-58
-58
-65
-72
-65
-53
-49
-42
-37
-39
-32
-18
-11
-9
-16
-11
7
18
23
21
11
18
35
46
51
44
39
39
46
56
60
58
53
56
58
39
30
32
32
42
53
58
56
39
30
35
44
56
53
42
44
56
72
140
340
663
969
866
37
-763
-674
-217
-39
44
135
128
102
116
112
114
133
130
100
65
60
81
86
79
86
102
126
156
177
184
205
245
280
308
345
380
394
387
371
343
294
219
135
53
-25
-98
-140
-154
-182
-214
-203
-175
-163
-154
-137
-123
-112
-95
-77
-65
-63
-56
-42
-21
-11
-21
-25
-14
-4
0
7
4
4
11
11
14
23
18
14
21
18
7
9
23
35
42
37
25
7
-23
-25
-9
-7
-4
4
9
16
16
9
9
16
28
51
72
74
51
16
-4
2
-16
-39
-28
-11
-7
-9
-30
-35
35
247
593
945
913
105
-829
-845
-338
-123
-42
72
72
42
84
100
86
98
112
107
105
107
107
107
107
105
123
161
184
193
207
245
296
331
357
394
422
434
443
441
406
329
205
79
-7
-67
-126
-177
-205
-205
-189
-179
-172
-168
-158
-149
-142
-135
-123
-112
-102
-81
-72
-79
-86
-86
-79
-67
-56
-39
-39
-56
-51
-25
-9
-9
-11
-14
-7
7
16
18
16
11
14
28
44
49
37
25
23
35
42
39
37
51
79
98
95
91
86
72
67
72
84
95
84
72
84
102
133
296
632
1022
1149
485
-618
-917
-439
-140
-51
67
107
77
84
105
105
102
100
81
70
84
100
109
126
142
144
147
156
175
196
219
245
273
308
348
378
399
406
394
357
301
231
116
0
-72
-121
-161
-179
-193
-198
-186
-170
-154
-142
-130
-119
-105
-88
-84
-105
-133
-128
-102
-86
-74
-70
-65
-58
-56
-51
-37
-30
-28
-32
-49
-46
-35
-32
-28
-16
-16
-14
4
4
-28
-37
-16
-2
-18
-51
-60
-39
-25
-23
-16
-23
-30
-23
-11
0
23
42
58
65
60
42
14
11
21
23
28
42
44
42
56
91
210
488
873
1121
696
-362
-880
-460
-58
18
105
158
128
128
137
126
137
151
147
144
156
163
151
149
168
170
161
184
203
200
219
256
275
287
301
319
343
324
273
249
226
163
79
-9
-91
-142
-168
-189
-214
-224
-212
-191
-175
-182
-196
-175
-144
-130
-116
-102
-98
-93
-79
-58
-49
-51
-44
-32
-28
-18
-4
0
-2
-11
-9
4
18
14
7
11
25
30
32
39
32
16
16
25
28
28
28
30
37
42
49
49
42
42
49
35
7
7
30
44
53
65
67
56
42
39
51
63
60
21
-16
2
30
49
154
420
768
962
534
-448
-903
-506
-126
-28
70
119
79
56
58
65
72
74
81
88
79
74
102
126
133
144
154
161
179
203
214
210
221
254
289
315
336
345
336
310
275
224
144
53
-32
-98
-135
-168
-214
-228
-212
-196
-182
-168
-161
-147
-135
-133
-114
-88
-88
-86
-67
-58
-58
-84
-123
-123
-93
-81
-70
-58
-70
-70
-46
-37
-39
-35
-28
-16
-11
-7
2
4
7
18
30
32
32
35
42
46
44
51
65
65
58
51
51
60
63
58
60
63
58
63
84
98
112
121
109
102
105
88
63
56
65
70
70
65
79
98
142
317
653
992
959
184
-721
-749
-254
-25
46
140
133
84
77
72
72
88
95
102
112
126
130
121
119
135
140
149
175
193
210
235
261
291
331
371
397
411
404
385
355
305
228
135
44
-25
-77
-123
-154
-165
-161
-147
-133
-130
-121
-112
-102
-98
-105
-112
-102
-98
-86
-70
-53
-44
-44
-44
-30
-23
-32
-44
-46
-46
-46
-35
-21
-18
-51
-91
-81
-49
-44
-53
-79
-100
-86
-72
-67
-56
-56
-67
-56
-37
-28
-25
-35
-42
-30
-21
-21
-4
2
0
4
11
2
-9
-14
-23
-25
-9
-4
-16
-18
-4
18
100
352
740
1022
735
-298
-1079
-812
-326
-214
-107
25
18
2
39
49
37
25
16
21
28
30
37
53
79
105
114
128
161
196
226
261
296
326
369
420
453
471
474
439
378
319
247
140
30
-49
-93
-123
-149
-161
-163
-158
-144
-123
-114
-137
-154
-130
-109
-107
-91
-74
-63
-53
-39
-23
-9
-7
-9
-7
2
9
-2
-23
-30
-18
-9
-2
2
7
4
-7
-11
2
7
0
7
18
32
46
44
30
28
30
35
46
58
72
100
112
98
88
81
77
81
81
81
88
91
95
114
130
217
485
894
1202
875
-226
-929
-583
-161
-81
18
100
77
72
95
100
100
109
123
130
121
116
130
137
128
128
133
123
128
156
179
179
189
228
266
284
305
329
329
308
261
196
114
25
-58
-126
-172
-203
-221
-228
-221
-203
-184
-177
-172
-161
-149
-137
-126
-116
-105
-98
-95
-81
-63
-72
-93
-86
-70
-65
-65
-70
-79
-79
-70
-67
-65
-79
-121
-140
-109
-91
-93
-93
-93
-81
-56
-44
-39
-39
-46
-35
-23
-37
-51
-53
-49
-39
-42
-51
-44
-39
-28
-4
23
44
53
46
32
30
44
53
51
46
49
63
79
91
114
205
462
852
1128
782
-245
-857
-497
-65
18
95
140
86
86
130
142
144
149
142
140
142
147
154
144
133
149
182
200
207
224
247
273
312
350
373
373
359
366
371
331
273
219
133
25
-49
-100
-149
-184
-196
-186
-179
-175
-158
-137
-128
-121
-102
-81
-72
-67
-51
-39
-32
-16
-9
-14
-9
7
18
23
25
25
23
28
30
21
7
4
16
30
32
32
37
42
44
49
56
56
53
56
65
77
81
72
65
70
74
79
79
49
16
18
23
11
-4
-42
-79
-65
-49
-53
-44
-39
-44
-39
-37
-30
-11
2
0
11
28
81
263
569
892
927
231
-696
-787
-289
-39
23
109
112
77
100
128
126
128
130
116
105
116
123
114
112
119
133
154
168
184
214
245
263
289
329
359
373
387
404
399
366
319
254
170
84
14
-42
-84
-123
-170
-186
-172
-163
-156
-158
-179
-177
-151
-140
-133
-116
-100
-86
-74
-56
-39
-46
-51
-35
-11
-4
-4
-2
-2
-2
7
16
9
-2
7
28
35
21
7
2
7
14
23
35
32
30
39
51
56
58
53
44
56
72
70
70
74
74
74
77
91
95
72
58
72
81
93
114
114
81
51
51
65
63
42
37
53
65
70
72
70
79
151
343
667
973
798
-86
-815
-632
-177
-46
-16
44
44
30
42
42
32
42
53
51
49
49
56
74
93
109
135
149
154
179
214
240
263
268
263
296
340
362
364
350
310
259
200
130
44
-44
-102
-133
-149
-154
-154
-161
-172
-175
-179
-177
-158
-147
-142
-135
-119
-102
-100
-100
-88
-72
-70
-72
-67
-70
-79
-72
-63
-60
-60
-67
-81
-88
-74
-79
-123
-144
-123
-119
-133
-126
-114
-105
-95
-86
-74
-60
-46
-42
-39
-25
-14
-18
-14
-2
7
16
18
7
7
35
49
53
81
91
74
65
60
49
37
25
23
30
35
16
-2
16
105
338
712
1025
768
-254
-1001
-721
-252
-135
-32
65
42
37
79
93
88
91
105
126
135
137
147
161
184
196
193
203
205
196
226
280
312
343
385
425
462
481
478
464
425
357
284
203
95
-7
-67
-102
-116
-116
-135
-154
-133
-95
-74
-60
-58
-84
-91
-51
-9
-7
-11
4
-16
-46
-16
7
21
32
9
-9
-11
-7
4
11
16
28
25
21
42
51
42
49
70
81
74
63
60
53
37
30
23
11
28
60
79
86
39
-46
-70
-42
-42
-51
-42
-25
-21
-25
-14
2
49
261
630
987
931
9
-1022
-948
-357
-170
-65
100
65
0
60
84
46
72
116
105
77
74
77
77
84
88
135
207
219
207
240
282
322
366
394
399
418
488
527
469
406
357
256
130
21
-60
-100
-123
-147
-154
-149
-158
-161
-144
-126
-116
-102
-72
-53
-65
-72
-67
-46
-23
-60
-81
-18
-18
-86
-86
-49
-51
-58
-35
-21
-37
-56
-70
-72
-28
9
0
-7
-4
-4
-32
-58
-39
-23
-35
-16
-2
-18
-35
-35
-11
16
37
67
72
37
28
42
51
65
56
44
49
35
21
46
100
228
497
857
1067
586
-460
-878
-434
-93
-25
84
121
74
95
128
123
130
140
126
107
112
130
112
58
56
95
114
109
105
126
163
184
205
247
287
308
329
338
329
298
224
140
86
25
-56
-123
-161
-175
-182
-189
-193
-182
-170
-156
-126
-112
-123
-130
-135
-135
-137
-144
-144
-123
-107
-107
-91
-77
-84
-86
-84
-86
-74
-42
4
9
-44
-70
-46
-37
-23
-7
-21
-44
-25
-7
-28
-39
-21
-9
-9
-9
-14
-35
-37
-14
-9
-30
-30
-44
-93
-109
-93
-98
-102
-88
-70
-49
53
310
651
838
394
-558
-929
-502
-161
-91
7
65
51
84
116
98
84
79
79
91
112
137
144
147
170
196
207
212
210
228
263
284
322
355
357
390
441
439
397
371
340
273
193
105
4
-70
-109
-142
-161
-158
-149
-144
-147
-151
-142
-105
-81
-86
-72
-51
-42
-42
-63
-79
-60
-39
-21
-35
-84
-93
-67
-53
-44
-56
-74
-46
0
2
-9
-2
-9
-23
-14
-2
0
-9
-14
-7
9
28
46
49
56
84
93
74
58
51
58
91
107
93
72
56
77
109
112
165
383
705
994
936
156
-733
-756
-266
-21
51
130
177
177
177
177
170
184
210
205
200
210
165
130
200
254
207
196
259
287
263
231
238
275
310
357
399
415
418
399
352
301
224
81
-25
-53
-86
-137
-170
-191
-203
-170
-147
-168
-163
-140
-140
-142
-149
-149
-109
-86
-107
-105
-84
-95
-93
-65
-65
-77
-72
-72
-67
-63
-102
-105
-30
-21
-53
-14
-18
-86
-63
9
4
-32
-11
16
-32
-93
-56
16
37
23
7
-11
-7
21
18
11
46
60
7
-11
65
193
406
747
1062
826
-205
-994
-745
-242
-77
28
133
123
74
112
172
147
114
151
179
175
203
226
217
224
226
207
259
357
352
312
348
399
425
453
511
541
513
516
527
464
378
284
158
51
-2
-49
-116
-177
-210
-184
-142
-147
-165
-161
-133
-107
-105
-98
-100
-121
-130
-121
-107
-98
-107
-147
-163
-144
-144
-135
-109
-130
-154
-123
-93
-88
-91
-102
-86
-53
-60
-81
-79
-65
-23
14
2
-16
-4
4
-4
-18
-28
-25
-32
-37
-7
18
30
137
439
868
1193
868
-270
-1069
-770
-308
-179
-32
74
42
42
70
42
42
86
95
84
88
98
114
137
158
177
193
200
226
289
322
312
333
383
434
469
490
502
488
443
390
319
193
42
-46
-93
-151
-191
-193
-191
-189
-154
-126
-137
-142
-107
-95
-126
-121
-95
-100
-109
-88
-60
-51
-63
-70
-67
-70
-65
-53
-63
-84
-98
-91
-77
-74
-72
-74
-86
-102
-123
-135
-130
-107
-91
-105
-93
-53
-42
-39
-35
-44
-56
-42
-32
-30
-25
-28
-16
-2
9
77
275
653
1128
1228
362
-780
-861
-261
-14
-4
72
91
63
77
95
91
79
79
72
60
81
86
79
130
172
144
142
207
249
256
282
319
343
364
401
450
469
453
436
385
303
240
158
35
-58
-93
-119
-147
-163
-163
-172
-177
-137
-98
-98
-102
-91
-77
-72
-67
-53
-44
-35
-11
-16
-42
-37
-30
-42
-37
-23
-35
-39
-21
-21
-39
-49
-53
-56
-65
-86
-102
-95
-77
-86
-126
-137
-116
-100
-98
-88
-114
-165
-163
-133
-114
-107
-116
-105
-67
11
268
749
1219
1069
-37
-994
-747
-189
-149
-144
-18
-37
-84
-49
-32
-9
32
30
14
23
25
25
39
70
112
121
102
126
177
191
205
240
261
287
343
378
380
369
336
280
214
130
37
-42
-109
-163
-191
-205
-203
-182
-165
-161
-144
-119
-107
-116
-107
-56
-35
-46
-56
-98
-128
-95
-58
-42
-39
-53
-51
-44
-53
-60
-51
-63
-84
-77
-65
-72
-77
-65
-74
-98
-81
-53
-58
-77
-67
-53
-44
-37
-42
-51
-56
-49
-30
-18
-18
2
93
348
773
1179
973
-130
-980
-686
-135
-7
30
77
51
51
95
112
123
133
126
130
156
175
177
175
179
200
226
256
284
305
324
350
383
387
378
392
415
429
441
413
326
221
135
46
-44
-107
-135
-154
-165
-170
-156
-119
-91
-93
-81
-53
-49
-56
-51
-46
-32
4
18
-2
2
23
18
11
18
21
18
18
21
21
18
11
2
0
2
-9
-46
-77
-67
-63
-63
-53
-58
-56
-37
-32
-42
-60
-86
-88
-77
-79
-91
-81
-72
-79
-81
-70
-51
49
331
749
969
406
-738
-1191
-698
-275
-186
-109
-81
-109
-65
-18
-44
-37
7
-7
-21
21
42
37
49
51
49
74
126
184
205
207
254
298
305
343
390
392
373
343
308
275
200
84
37
44
-7
-88
-116
-123
-123
-77
-60
-107
-88
-25
-23
-39
-25
-7
11
35
39
18
11
21
16
16
39
37
14
-2
-30
-46
-28
-4
23
-2
-81
-77
-35
-49
-42
-32
-35
-16
-46
-93
-70
-39
-56
-60
-11
16
-9
-35
-51
-49
-51
-60
-4
42
-16
-39
-2
79
324
703
1008
780
-200
-920
-649
-170
-25
32
91
102
105
123
140
123
114
137
158
149
140
170
205
214
221
228
224
221
259
296
277
284
338
355
366
411
408
364
355
340
263
186
128
44
-32
-63
-65
-88
-144
-170
-149
-114
-74
-91
-154
-147
-91
-79
-84
-72
-74
-86
-79
-46
-25
-53
-65
-25
-16
-35
-18
2
-16
-37
-30
-18
-18
-23
-25
-2
21
-2
-23
-11
-25
-60
-65
-39
-9
11
9
-4
-25
-35
-44
-70
-93
-93
-77
-58
-49
-39
30
231
558
938
901
30
-843
-724
-212
-44
2
74
67
63
102
105
51
25
74
98
70
98
140
112
107
154
172
163
177
207
235
275
312
315
317
364
406
397
392
383
329
282
224
105
11
0
-16
-42
-51
-70
-88
-74
-32
-9
-46
-84
-60
-21
-16
-37
-56
-49
-32
-46
-30
7
-28
-42
2
-14
-56
-42
-11
-16
-44
-53
0
42
-16
-56
-23
-39
-91
-56
23
2
-93
-102
-74
-105
-91
-37
-86
-147
-63
2
-46
-58
-18
-21
37
291
693
1037
717
-385
-966
-523
-98
-30
60
121
67
58
98
109
123
137
126
112
119
147
154
158
177
168
137
161
203
205
231
303
338
322
296
298
333
352
338
296
240
203
158
67
-23
-74
-91
-100
-114
-107
-93
-88
-88
-91
-91
-67
-42
-32
-28
-18
-9
0
-18
-35
-25
-56
-79
-35
-23
-58
-60
-37
-25
-16
-32
-53
-42
-35
-46
-44
-30
-32
-51
-53
-32
-35
-58
-65
-58
-56
-46
-44
-70
-81
-53
-23
58
326
782
1151
796
-364
-1069
-707
-235
-100
16
86
60
72
109
109
109
119
114
107
123
147
156
165
179
193
214
240
270
296
308
326
362
394
420
448
453
418
380
355
296
212
135
46
-32
-79
-114
-135
-133
-133
-140
-130
-112
-102
-100
-88
-65
-46
-42
-42
-37
-49
-70
-60
-35
-37
-60
-53
-28
-25
-25
-14
-16
-16
-4
-18
-53
-53
-23
0
14
16
-4
-25
-23
-18
-32
-42
-39
-49
-49
-37
-42
-2
186
565
1072
1237
371
-836
-941
-336
-107
-93
9
30
-11
-18
-16
-7
11
25
37
35
18
21
60
86
91
102
123
144
168
193
198
186
191
214
233
249
252
245
238
212
165
93
4
-60
-88
-112
-137
-142
-137
-130
-107
-88
-100
-107
-88
-81
-72
-49
-32
-28
-25
-21
-7
2
9
9
-2
-7
14
32
30
18
16
28
42
35
21
16
23
35
53
77
102
102
65
35
35
39
30
21
18
25
37
51
67
140
392
896
1324
840
-467
-1067
-572
-168
-161
-95
-32
-74
-67
-14
0
0
9
16
30
42
44
51
67
77
79
98
133
161
177
193
219
254
291
324
336
338
338
331
308
256
182
109
39
-16
-53
-77
-95
-95
-86
-86
-77
-56
-49
-49
-42
-28
-18
-11
-4
0
-4
-4
7
11
7
14
14
-4
-25
-51
-74
-79
-70
-58
-44
-39
-35
-28
-35
-44
-30
-14
-2
21
35
23
7
7
9
9
9
18
28
14
7
21
35
112
357
791
1254
1067
-70
-913
-611
-126
-60
-32
23
-7
-9
25
28
32
51
53
49
51
58
70
84
93
79
63
88
119
135
161
182
207
249
282
296
287
263
256
245
193
119
18
-95
-158
-179
-205
-226
-228
-217
-205
-207
-214
-205
-191
-179
-163
-147
-142
-135
-128
-121
-114
-114
-116
-119
-116
-112
-102
-91
-86
-88
-86
-70
-51
-49
-46
-46
-53
-46
-25
-18
-18
-32
-42
-11
35
53
53
39
25
32
39
42
53
44
23
32
58
72
151
408
836
1209
880
-259
-948
-572
-119
-56
-11
49
25
11
39
51
44
49
39
11
11
37
51
74
93
95
123
149
161
186
221
238
261
303
338
359
371
366
352
336
296
224
144
56
-18
-44
-53
-77
-93
-93
-84
-67
-46
-37
-39
-30
-11
0
14
23
18
21
35
35
30
42
44
16
-14
-7
14
14
7
9
16
28
37
32
28
25
11
4
7
11
21
32
49
79
77
25
-14
-9
-9
-23
-16
-4
-7
-9
9
42
130
387
838
1188
777
-390
-1027
-639
-207
-133
-67
-21
-70
-74
-28
-21
-18
11
18
9
25
51
58
60
72
93
116
137
158
179
198
226
247
249
252
270
280
282
273
235
182
114
25
-60
-126
-170
-193
-205
-219
-219
-203
-186
-177
-172
-158
-135
-119
-112
-112
-133
-149
-126
-109
-109
-98
-98
-95
-72
-51
-49
-49
-42
-30
-14
-4
-11
-39
-46
-25
-11
-14
-14
-7
7
25
46
56
56
37
16
25
44
39
30
32
37
37
37
60
156
432
901
1146
495
-635
-920
-394
-79
-65
-11
39
25
21
46
63
79
95
100
107
121
130
142
168
182
184
203
228
252
273
291
315
350
390
413
422
406
362
329
303
245
156
60
-14
-65
-95
-100
-100
-107
-100
-81
-70
-53
-35
-35
-30
-11
4
16
23
23
28
39
44
49
53
37
11
7
21
32
32
28
16
9
16
25
18
4
4
18
32
39
49
53
49
37
39
39
-4
-51
-37
-18
-30
-35
-30
-9
142
504
980
1083
245
-808
-852
-310
-105
-81
-7
-4
-32
4
37
11
-30
-25
0
4
18
37
35
44
77
102
114
123
133
158
198
233
247
256
268
263
254
249
226
170
93
7
-63
-112
-156
-184
-189
-186
-184
-170
-158
-144
-119
-102
-91
-65
-46
-44
-39
-21
-9
-11
-4
9
9
9
23
35
30
32
42
44
28
9
11
21
16
11
25
44
53
72
88
70
51
37
0
-25
-11
4
9
11
11
16
42
147
422
875
1172
618
-553
-980
-478
-119
-105
-42
16
-16
-4
32
32
44
77
86
88
100
107
121
142
156
168
186
205
226
259
287
308
329
357
392
411
408
399
380
340
280
193
100
25
-14
-37
-58
-74
-84
-77
-56
-42
-30
-14
-2
-2
0
16
35
39
25
-7
-25
-4
14
0
-9
4
7
14
16
-9
-30
-28
-30
-37
-28
-23
-21
2
37
46
39
32
7
-30
-42
-39
-39
-32
-32
-35
-21
4
105
371
789
1095
653
-448
-945
-530
-170
-107
-32
2
-32
-37
-32
-35
-18
-2
7
18
18
28
46
60
70
79
84
102
133
154
172
196
212
231
259
282
282
268
245
210
158
93
16
-72
-149
-172
-168
-175
-179
-198
-214
-189
-161
-147
-130
-116
-109
-91
-65
-51
-46
-44
-42
-28
-9
9
9
-11
-11
7
16
28
32
21
21
28
14
7
11
4
4
25
58
84
93
81
72
67
77
84
77
72
74
65
60
74
107
221
495
903
1102
483
-555
-789
-315
-42
16
77
46
-9
9
35
35
23
2
0
16
23
32
51
70
91
109
126
149
172
196
226
256
282
308
329
343
350
345
324
289
238
170
86
0
-56
-81
-100
-116
-142
-172
-184
-182
-170
-149
-130
-116
-100
-86
-74
-58
-39
-35
-37
-35
-30
-18
-7
0
2
0
-2
14
25
23
21
11
0
-14
-30
-35
-46
-74
-72
-30
-4
0
2
0
0
11
16
11
2
-25
-44
-32
-21
11
163
492
948
1076
296
-745
-836
-317
-93
-63
9
9
-21
7
28
25
39
53
56
65
86
107
119
121
126
151
186
205
219
247
275
301
338
376
397
411
413
390
359
331
263
156
63
2
-60
-123
-144
-149
-151
-133
-107
-93
-86
-84
-67
-37
-23
-25
-25
-21
-7
7
16
23
16
-16
-39
-25
-14
-14
-9
-9
-14
-16
-23
-16
-11
-25
-21
0
23
46
51
39
35
46
49
44
44
44
51
53
53
60
65
128
383
810
1153
871
-228
-1032
-740
-247
-121
-2
107
77
65
93
72
49
63
65
74
105
128
133
135
142
163
193
221
247
270
291
322
362
401
429
443
448
455
439
383
319
233
98
-18
-72
-121
-191
-231
-221
-205
-198
-184
-172
-161
-144
-128
-107
-86
-81
-72
-49
-35
-32
-21
-18
-21
-18
-21
-21
-39
-72
-74
-63
-65
-77
-91
-91
-70
-44
-18
-21
-58
-65
-44
-46
-53
-42
-39
-37
-21
-4
7
18
79
296
707
1167
1088
14
-987
-794
-226
-95
-30
79
51
9
28
25
11
23
37
37
46
58
58
46
25
35
67
86
102
135
165
196
231
263
296
322
329
329
317
275
212
142
58
-21
-77
-130
-175
-184
-170
-163
-158
-144
-126
-123
-137
-128
-105
-93
-81
-74
-70
-49
-32
-32
-37
-37
-23
-2
2
-11
-11
-4
9
25
30
28
14
-21
-42
-21
0
11
32
53
63
60
53
46
37
35
42
53
53
35
2
-4
63
301
761
1270
1130
-7
-899
-621
-128
-77
-63
9
-4
-32
-30
-30
-23
-2
9
21
30
35
42
42
25
35
72
91
105
135
175
210
242
275
305
329
345
352
336
287
224
158
77
-4
-60
-105
-151
-163
-142
-140
-149
-140
-119
-98
-81
-77
-77
-77
-60
-39
-32
-30
-28
-30
-23
-7
2
-4
-44
-86
-74
-46
-46
-56
-81
-107
-98
-88
-100
-107
-112
-102
-65
-28
-14
-9
-11
-18
-30
-44
-60
-56
-46
-44
-30
-16
-9
28
196
574
1076
1184
308
-787
-812
-252
-72
-72
7
7
-39
-21
2
4
14
28
35
37
44
65
77
88
112
128
140
161
184
210
240
273
310
348
373
385
387
376
348
291
210
123
39
-49
-112
-130
-144
-156
-140
-126
-128
-133
-151
-161
-137
-119
-126
-137
-133
-114
-98
-88
-74
-63
-63
-58
-39
-37
-42
-32
-23
-21
-16
-11
-11
-11
-9
-4
-4
-7
0
9
11
14
16
11
9
7
7
25
49
67
77
74
63
49
37
23
9
14
25
32
30
35
58
142
369
747
1079
780
-289
-978
-628
-170
-86
-30
25
-7
-2
42
44
39
49
37
30
49
65
63
44
25
46
86
109
133
154
170
205
259
296
315
326
340
348
336
303
249
177
84
-2
-53
-88
-144
-198
-196
-165
-158
-156
-147
-133
-114
-102
-84
-72
-70
-63
-46
-30
-18
-14
-18
-16
-4
-7
-16
-16
-14
-11
-4
-2
0
9
9
4
16
30
32
37
35
23
7
-7
-9
-16
-28
-23
-11
-7
-4
-25
-63
-63
-49
-60
-70
-67
-65
-53
-42
-39
-44
-56
-65
-63
-51
-39
-42
-51
-42
-21
7
112
369
745
1034
689
-355
-917
-516
-105
-42
30
98
79
77
100
93
81
93
112
121
116
114
137
165
175
186
203
217
235
273
305
324
343
373
406
408
399
401
387
348
301
235
142
49
-21
-60
-81
-98
-142
-191
-193
-165
-142
-123
-119
-116
-102
-88
-74
-51
-39
-35
-32
-30
-23
-21
-28
-28
-21
-23
-30
-23
-14
-18
-21
-21
-30
-32
-35
-58
-86
-95
-88
-79
-74
-70
-60
-53
-51
-46
-49
-46
-32
-21
-18
-30
-42
-30
-14
-11
-16
-16
-9
0
2
0
-9
-16
-11
0
14
14
-9
-21
-2
51
203
511
924
1053
294
-847
-1051
-485
-179
-112
4
44
23
42
60
58
72
95
107
112
119
126
135
151
170
186
198
210
224
240
268
298
317
343
387
418
422
406
369
324
259
165
60
-35
-116
-179
-210
-212
-214
-228
-247
-247
-228
-210
-186
-182
-196
-182
-158
-161
-170
-177
-177
-158
-126
-112
-114
-116
-114
-98
-84
-81
-81
-107
-137
-126
-98
-84
-74
-81
-84
-60
-44
-37
-28
-30
-25
-4
7
14
16
7
-4
-4
14
30
14
-4
11
39
65
91
93
81
79
84
93
91
77
77
93
93
88
107
135
198
404
791
1198
997
-98
-892
-548
-35
23
42
109
84
79
130
144
140
149
147
149
168
191
203
198
200
224
242
245
245
261
287
315
348
383
411
425
441
443
418
378
329
235
109
21
-32
-95
-170
-219
-224
-210
-200
-189
-179
-165
-147
-137
-130
-114
-100
-88
-77
-63
-46
-30
-25
-30
-42
-67
-86
-84
-100
-114
-100
-98
-107
-98
-84
-79
-74
-67
-53
-39
-35
-42
-44
-30
-14
-14
-16
-9
-2
2
9
9
7
16
18
16
21
14
-2
2
18
32
53
58
37
18
21
18
-7
-49
-56
-39
-39
-44
-39
-28
16
149
429
838
1058
469
-607
-889
-364
-39
-11
56
93
70
65
56
46
63
74
67
65
77
88
105
130
137
135
142
147
161
198
224
240
277
312
340
376
399
392
362
324
282
217
128
37
-35
-79
-102
-112
-112
-116
-116
-109
-95
-81
-67
-63
-60
-51
-30
-7
4
-11
-44
-49
-16
-2
-16
-16
-7
-2
11
25
30
28
25
28
35
42
39
23
4
14
23
11
9
18
16
16
35
53
51
44
46
56
60
56
56
56
65
93
114
121
121
109
102
102
102
107
109
93
86
107
126
142
214
418
759
1086
852
-126
-789
-495
-56
53
121
184
158
147
163
158
161
172
158
147
151
158
170
172
126
70
77
109
119
135
156
156
161
196
228
254
277
282
275
261
226
163
79
-14
-91
-126
-147
-175
-186
-179
-165
-147
-135
-137
-135
-114
-91
-81
-72
-60
-53
-42
-28
-14
-16
-30
-25
-16
-16
-2
7
0
2
9
11
23
32
23
16
25
35
49
49
42
46
58
56
51
63
67
67
70
70
56
25
0
4
4
-9
11
35
28
18
25
28
23
23
37
42
32
42
67
93
207
478
840
1034
537
-455
-791
-340
-14
44
121
147
121
135
156
147
133
121
121
133
135
140
151
154
161
186
200
207
214
219
242
273
287
308
336
359
378
378
352
319
270
198
119
37
-35
-84
-121
-151
-165
-186
-219
-228
-233
-228
-198
-177
-172
-156
-140
-130
-109
-93
-93
-86
-72
-58
-44
-37
-44
-49
-37
-21
-21
-18
-11
-16
-21
-11
9
9
-11
-28
-21
-4
7
11
11
9
9
14
16
14
-9
-30
-9
28
35
30
23
9
7
18
25
25
21
25
42
65
121
305
660
1060
1006
81
-829
-745
-275
-112
-44
35
30
16
35
49
63
77
79
77
79
88
100
114
112
79
51
67
112
133
140
168
205
235
273
301
294
270
259
238
189
126
39
-60
-142
-191
-219
-228
-233
-249
-249
-221
-196
-177
-172
-168
-151
-128
-109
-93
-79
-74
-65
-51
-44
-39
-32
-28
-39
-51
-46
-32
-37
-56
-60
-42
-21
-16
-14
-2
-7
-11
11
23
16
11
11
18
42
67
84
91
81
70
67
60
21
-9
7
25
11
-2
11
44
133
401
840
1174
838
-268
-973
-630
-175
-65
65
170
140
135
177
177
165
179
196
205
221
228
231
242
261
277
294
305
312
319
336
380
420
443
460
467
467
476
469
411
326
247
151
44
-35
-86
-126
-147
-154
-156
-158
-158
-154
-151
-151
-147
-135
-126
-119
-109
-112
-123
-144
-165
-154
-128
-128
-140
-158
-172
-158
-140
-135
-130
-119
-105
-98
-88
-77
-77
-81
-77
-65
-53
-35
-14
7
23
25
16
11
16
11
0
11
28
23
25
46
84
228
569
1048
1237
481
-686
-868
-296
-46
-35
65
102
81
105
116
102
123
149
156
165
170
165
172
189
200
205
210
219
245
287
319
336
340
340
357
392
411
404
373
329
270
189
100
18
-53
-88
-93
-98
-98
-95
-100
-88
-65
-58
-65
-65
-63
-65
-58
-42
-30
-25
-32
-37
-30
-44
-74
-91
-98
-107
-98
-79
-79
-81
-86
-84
-74
-65
-53
-51
-60
-60
-51
-49
-51
-39
-21
0
11
9
4
-7
-16
-18
-9
2
11
16
11
21
53
140
385
852
1324
1111
-25
-836
-534
-109
-86
-42
42
25
21
53
56
65
95
107
102
100
105
121
137
154
170
177
193
214
238
249
245
273
324
350
364
394
404
380
352
305
228
144
63
-4
-53
-86
-100
-116
-147
-168
-161
-149
-149
-151
-133
-105
-91
-79
-60
-58
-56
-35
-25
-32
-30
-39
-44
-30
-23
-30
-28
-18
-14
-18
-28
-32
-51
-95
-121
-107
-98
-107
-107
-114
-126
-128
-123
-109
-95
-88
-58
-23
-28
-32
-37
-74
-84
-58
-67
-79
-42
-11
2
53
210
548
1025
1121
263
-754
-733
-182
-16
-30
25
25
7
25
23
42
102
123
86
70
119
144
116
140
193
196
172
196
266
291
291
324
378
415
413
411
441
453
406
336
266
196
142
72
-42
-84
-58
-77
-114
-128
-154
-144
-88
-70
-86
-67
-51
-91
-107
-70
-60
-70
-49
-37
-32
-11
-32
-60
-14
37
-2
-63
-44
-23
-72
-74
-25
-51
-74
-44
-44
-53
-65
-95
-84
-60
-88
-107
-67
-65
-88
-18
42
-30
-74
-18
-32
-74
-14
7
-49
-49
-14
2
60
261
607
941
894
86
-840
-850
-326
-63
37
88
21
18
126
140
70
91
156
133
95
95
70
44
53
93
142
133
102
147
210
261
280
284
310
310
343
390
357
310
252
168
91
2
-109
-165
-203
-231
-179
-168
-238
-266
-231
-210
-259
-282
-235
-235
-233
-168
-156
-182
-140
-102
-161
-156
-95
-133
-177
-163
-149
-154
-170
-189
-182
-126
-91
-95
-98
-98
-91
-60
-42
-105
-154
-93
-51
-44
-2
7
2
2
-35
-51
-16
4
16
39
39
37
70
175
413
770
1058
836
-77
-798
-593
-70
172
242
256
247
273
291
270
291
355
352
315
326
343
350
376
401
427
450
443
441
492
537
527
513
539
621
703
679
639
649
611
541
429
329
284
193
105
91
77
49
67
102
91
79
74
51
60
88
107
137
161
144
107
60
44
72
81
81
98
77
51
79
91
46
49
88
60
51
86
60
39
51
21
-14
-2
18
35
56
67
60
39
14
14
32
25
2
-14
-21
4
42
77
221
576
1001
980
107
-840
-859
-392
-175
-91
14
-7
-119
-130
-53
-49
-77
-53
-37
-35
-18
-18
-11
32
60
81
100
74
130
238
221
163
175
226
275
303
319
310
252
177
109
49
-35
-133
-189
-221
-249
-252
-247
-261
-233
-170
-158
-207
-214
-135
-72
-98
-126
-123
-156
-140
-49
-65
-114
-49
-42
-128
-109
-25
-60
-116
-63
-42
-98
-100
-56
-58
-98
-109
-105
-95
-84
-93
-119
-128
-137
-161
-140
-79
-79
-109
-88
-70
-65
58
376
815
1074
544
-609
-1104
-665
-266
-133
-9
23
2
25
21
2
35
46
-9
-35
35
88
81
84
100
109
144
175
165
191
261
275
259
338
457
460
415
427
413
338
245
137
53
-14
-126
-196
-149
-137
-189
-210
-207
-207
-203
-196
-196
-154
-91
-100
-126
-79
-58
-88
-91
-65
-58
-60
-51
-46
-56
-51
-37
-44
-49
-32
-16
-23
-39
-46
-51
-51
-30
-4
9
0
-4
-7
-14
-25
-51
-95
-95
-70
-91
-123
-105
-23
196
604
1065
997
-70
-1095
-908
-319
-189
-151
-49
-58
-74
-30
-14
-35
-32
2
18
0
-11
2
14
23
44
63
72
81
109
149
179
217
256
263
273
291
282
249
219
168
79
-7
-84
-168
-226
-249
-266
-259
-235
-242
-259
-240
-217
-198
-175
-170
-182
-165
-135
-126
-126
-119
-135
-179
-186
-151
-121
-102
-98
-112
-112
-88
-72
-65
-58
-53
-67
-77
-51
-30
-49
-51
-28
-25
-30
11
37
0
-23
-14
-21
-44
-67
-74
-63
-28
11
-2
-42
30
324
749
1065
805
-217
-962
-667
-184
-79
-46
-2
2
25
49
42
53
93
105
86
86
102
105
116
149
158
170
193
184
168
219
294
317
345
397
404
387
397
390
340
252
140
72
21
-63
-128
-149
-130
-109
-121
-123
-98
-116
-140
-105
-72
-84
-91
-79
-63
-37
-18
-23
-23
-14
-7
-2
14
23
4
0
28
37
28
32
25
0
-9
28
77
79
56
56
60
49
42
28
-11
-46
-53
-51
-32
-4
0
-7
-11
-2
14
-7
-49
-44
-16
-30
-58
-58
-46
-23
119
418
745
796
154
-773
-948
-481
-189
-107
-37
-53
-93
-63
-42
-58
-51
-11
14
-2
-18
-2
16
28
44
65
67
67
102
149
186
217
226
233
273
319
336
324
303
275
210
128
65
-4
-79
-102
-116
-161
-156
-102
-116
-156
-121
-72
-49
-35
-49
-53
-25
-21
-21
18
39
4
-11
11
4
11
77
84
39
37
39
0
-21
21
30
-46
-95
-74
-67
-77
-42
9
-11
-51
-60
-60
-28
9
-2
-23
-16
-7
-18
-39
-35
-4
-2
2
21
2
-9
2
-16
-23
18
30
0
-2
56
191
462
822
875
196
-684
-817
-383
-67
74
130
102
107
151
154
130
140
168
182
196
205
207
210
212
207
212
256
333
359
317
322
366
366
355
390
457
499
469
406
340
259
184
100
0
-42
-51
-105
-119
-98
-109
-119
-98
-70
-58
-60
-56
-91
-133
-74
-37
-77
-65
-32
-32
-42
-56
-63
-49
-58
-74
-60
-60
-77
-44
0
-28
-65
-56
-37
-51
-93
-116
-91
-37
-9
-28
-49
-46
-51
-74
-74
-35
0
16
21
-25
-65
-25
-11
-60
-58
-37
-44
-23
-2
-14
79
359
742
1053
819
-186
-987
-754
-270
-168
-56
109
105
72
102
116
109
95
116
182
198
168
170
189
193
214
247
256
268
310
359
385
404
446
485
499
520
539
513
457
390
298
205
114
28
-37
-81
-112
-123
-126
-135
-126
-98
-88
-119
-126
-105
-114
-142
-123
-91
-88
-93
-86
-74
-74
-86
-95
-105
-116
-114
-109
-116
-119
-107
-95
-95
-100
-119
-158
-172
-149
-130
-119
-88
-65
-72
-79
-77
-79
-84
-88
-81
-56
-49
-46
-32
-16
53
310
749
1137
976
-74
-1051
-880
-308
-137
-32
109
109
91
130
140
130
149
156
144
144
151
154
163
184
186
179
186
207
240
282
324
359
373
355
362
411
436
406
340
270
200
102
-2
-81
-142
-182
-189
-191
-191
-179
-182
-186
-175
-149
-133
-140
-182
-207
-184
-172
-175
-172
-163
-147
-133
-133
-142
-158
-177
-182
-179
-182
-196
-210
-207
-196
-186
-177
-182
-200
-203
-193
-191
-182
-158
-140
-144
-165
-170
-170
-179
-182
-172
-154
-133
-119
-95
-56
84
432
924
1200
609
-651
-1116
-530
-128
-102
0
65
21
35
86
81
77
98
109
98
93
121
149
149
156
196
240
235
214
226
252
282
324
364
387
397
404
418
404
348
282
186
74
23
-7
-70
-114
-123
-128
-128
-128
-142
-137
-102
-84
-95
-95
-77
-65
-60
-65
-65
-46
-39
-58
-63
-51
-46
-25
-9
-35
-51
-44
-46
-42
-37
-46
-53
-56
-63
-72
-88
-105
-98
-51
7
11
-28
-46
-37
-30
-37
-44
-28
2
7
-4
0
14
93
408
955
1326
780
-520
-1053
-469
-42
-72
-23
56
35
37
63
63
60
53
56
93
116
109
126
144
130
135
165
163
168
196
200
212
256
303
338
364
364
352
345
301
224
149
65
-18
-77
-107
-144
-189
-184
-144
-130
-133
-126
-116
-100
-84
-70
-63
-53
-32
-4
9
0
-18
-30
-30
-7
16
16
-4
-35
-51
-39
-28
-23
-25
-51
-70
-56
-49
-53
-58
-58
-58
-63
-53
-32
-21
-21
-32
-58
-86
-91
-95
-98
-88
-81
-84
-79
-72
-65
-35
63
303
684
1032
866
-137
-1001
-780
-245
-107
-44
56
56
44
84
109
105
95
98
100
107
114
133
168
193
203
210
203
219
273
301
298
336
404
422
406
418
441
425
371
298
207
123
63
-11
-79
-98
-114
-135
-126
-137
-172
-154
-142
-158
-140
-128
-130
-114
-98
-88
-84
-93
-91
-51
0
-9
-56
-58
-37
-37
-44
-60
-72
-42
-4
-18
-39
-18
-4
-49
-91
-42
11
-7
-9
2
-16
-18
7
14
4
-2
-14
-32
-46
-51
-46
-35
-23
-14
39
238
607
980
838
-144
-1001
-822
-329
-165
-72
16
7
0
28
35
35
37
23
-2
-4
16
30
42
67
98
121
137
156
189
219
228
233
303
390
397
373
369
348
308
254
179
93
11
-46
-84
-112
-123
-123
-123
-114
-98
-95
-91
-67
-35
-39
-56
-16
21
0
-11
14
28
16
16
18
2
-18
-4
25
23
9
21
25
23
25
21
9
7
0
-11
-4
7
4
11
25
21
-2
-35
-79
-107
-112
-105
-102
-95
-70
-49
-4
203
588
945
796
-149
-969
-780
-270
-107
-37
42
32
28
60
58
58
91
100
95
112
130
135
147
170
189
182
191
228
252
282
338
364
362
385
413
415
399
373
338
291
224
142
63
-4
-58
-81
-88
-93
-88
-81
-88
-105
-102
-65
-39
-58
-56
-11
2
-9
-9
-14
-9
2
0
-11
-30
-63
-79
-56
-44
-37
-28
-42
-56
-39
-14
-14
-35
-53
-51
-37
-11
18
23
4
-9
-11
-9
-18
-65
-116
-119
-98
-91
-74
-49
7
226
614
931
665
-319
-980
-677
-212
-79
-14
35
18
32
67
67
56
74
112
109
77
72
79
86
105
128
154
179
205
231
252
263
284
315
338
355
364
355
340
303
210
91
18
-9
-35
-74
-128
-161
-158
-135
-116
-116
-112
-98
-72
-44
-35
-39
-37
-35
-35
-7
28
32
9
-9
-9
7
11
2
0
11
14
7
14
37
65
53
30
25
14
-11
-11
4
-4
-9
11
16
7
14
2
-44
-70
-35
-9
-32
-56
-56
-49
44
305
693
985
644
-376
-964
-611
-189
-81
14
58
-14
-7
63
58
32
49
65
79
93
100
119
133
142
168
193
198
214
245
270
296
326
348
364
385
408
404
376
331
259
184
123
56
-7
-56
-98
-109
-95
-84
-98
-123
-119
-93
-86
-81
-63
-51
-53
-46
-23
-28
-46
-42
-30
-23
-23
-25
-18
-9
-14
-18
-9
7
16
-2
-28
-9
18
21
11
-11
-53
-72
-51
-9
14
-25
-79
-74
-60
-79
-79
-77
-91
-84
-72
-84
-63
105
469
892
992
291
-789
-1044
-527
-205
-102
37
65
21
51
100
88
74
84
77
72
105
142
161
163
158
168
196
219
240
263
289
319
359
397
425
441
434
415
385
338
277
179
70
-7
-49
-84
-112
-130
-140
-128
-109
-93
-79
-60
-56
-60
-39
-11
-28
-49
-32
-14
-14
-9
-21
-63
-79
-56
-32
-30
-32
-32
-37
-37
-21
-14
-35
-39
-16
14
37
51
51
30
-14
-49
-46
-49
-60
-51
-49
-58
-56
-37
32
226
565
997
1111
273
-903
-1032
-422
-147
-109
11
60
25
18
35
32
30
58
91
98
98
107
114
133
156
168
170
182
193
221
275
301
303
352
420
406
362
366
364
284
154
44
-35
-98
-142
-186
-214
-168
-121
-137
-142
-119
-130
-140
-91
-58
-91
-114
-93
-91
-119
-109
-72
-53
-32
-28
-58
-63
-44
-74
-133
-126
-51
-28
-63
-60
-32
-46
-53
-42
-63
-67
-2
44
37
37
44
23
4
9
11
-16
-28
-2
0
-2
105
357
761
1177
952
-200
-1015
-642
-109
-49
-28
35
18
-2
-21
-44
-16
14
14
21
23
30
65
100
102
81
67
79
109
142
147
156
235
308
305
312
338
310
275
263
228
135
30
-28
-56
-91
-126
-128
-116
-109
-98
-105
-105
-70
-51
-53
-37
-9
-4
-14
-28
-35
-18
7
11
9
11
2
2
21
30
32
44
39
35
46
44
23
14
9
2
42
102
109
93
86
65
60
74
53
9
-21
-30
-28
-11
4
14
116
448
941
1111
355
-763
-938
-383
-119
-109
-30
-7
-44
-14
30
25
14
28
53
65
72
88
95
91
105
133
144
154
179
205
221
242
275
319
355
362
355
350
338
282
189
93
16
-30
-51
-77
-105
-116
-107
-93
-74
-65
-70
-60
-30
-25
-21
-7
-18
-51
-70
-49
-30
-63
-123
-140
-123
-121
-109
-86
-72
-72
-86
-81
-51
-39
-44
-35
-28
-35
-30
-21
-11
4
30
51
63
53
42
39
30
4
-16
-21
-18
-11
2
18
93
294
656
1067
941
-74
-922
-707
-205
-67
-16
51
35
30
63
67
72
93
107
114
102
81
100
135
147
142
133
128
158
203
219
235
275
310
329
345
357
352
333
305
263
172
42
-44
-77
-100
-126
-144
-154
-133
-93
-79
-86
-88
-81
-63
-42
-39
-46
-39
-28
-14
-4
-2
2
18
23
7
-2
11
25
18
11
28
49
56
51
39
18
9
28
58
74
79
86
95
95
95
86
49
21
32
42
23
4
4
65
263
621
1015
922
-30
-894
-740
-228
-53
-7
46
44
46
70
56
25
21
30
30
53
81
65
60
95
109
114
142
158
172
210
249
280
305
322
343
362
362
345
308
238
158
91
21
-35
-67
-102
-121
-109
-100
-109
-133
-147
-123
-100
-93
-84
-79
-81
-72
-53
-49
-63
-70
-60
-63
-65
-46
-23
-21
-39
-58
-39
18
37
4
-11
-9
-18
-7
28
35
18
49
88
79
60
58
42
4
-7
-9
-44
-65
-37
-23
-11
144
478
836
868
165
-766
-873
-359
-86
-60
2
37
14
21
51
56
53
70
81
77
91
116
128
133
137
151
168
170
191
228
228
224
259
296
312
329
331
312
284
238
172
95
21
-23
-53
-95
-112
-105
-105
-105
-91
-84
-77
-49
-23
-28
-46
-35
-11
-9
-11
2
14
7
0
-16
-42
-39
-21
-23
-25
-30
-23
4
16
-2
-14
11
30
11
0
16
32
44
60
84
93
81
65
53
37
28
35
30
11
-2
-11
2
72
266
611
971
819
-123
-889
-691
-233
-91
-11
79
60
23
42
70
79
91
100
105
112
112
114
130
154
172
184
193
200
226
263
287
301
333
380
406
401
394
352
273
212
154
65
-39
-133
-179
-184
-189
-207
-205
-170
-137
-133
-140
-144
-137
-123
-114
-98
-72
-63
-72
-88
-112
-121
-105
-100
-107
-102
-86
-81
-86
-81
-70
-67
-74
-74
-70
-63
-56
-53
-65
-81
-72
-53
-49
-42
-37
-44
-70
-88
-81
-74
-86
-79
-51
-42
-51
-30
37
231
616
1055
1001
2
-1004
-894
-319
-140
-84
35
49
30
60
39
-7
16
60
56
46
53
60
84
121
151
179
203
214
235
256
275
303
333
355
378
392
404
413
373
284
193
114
37
-39
-95
-100
-86
-105
-119
-100
-98
-114
-112
-88
-65
-58
-39
-18
-18
2
39
28
2
21
46
44
35
32
39
46
39
35
72
95
67
53
63
51
39
49
65
74
79
93
84
49
46
70
60
21
-32
-42
11
9
-23
11
156
476
964
1221
544
-705
-1069
-495
-149
-128
-16
44
-9
4
58
46
39
70
72
60
84
105
114
128
135
161
198
203
203
212
217
249
287
298
331
383
397
376
331
256
175
100
35
-11
-60
-109
-130
-130
-123
-112
-102
-105
-100
-63
-46
-60
-46
-32
-44
-37
2
23
14
-4
-9
14
18
-2
2
11
-28
-72
-60
-18
-2
-21
-30
-14
-4
-9
-11
-9
-7
-11
18
72
77
44
35
32
21
21
21
14
14
30
37
42
72
161
406
843
1228
892
-280
-1001
-602
-102
-30
11
74
49
37
70
81
72
72
70
58
74
133
163
135
123
158
191
200
221
252
263
263
282
317
350
364
364
355
338
310
249
140
16
-58
-98
-128
-137
-147
-168
-168
-144
-123
-107
-102
-102
-84
-63
-44
-28
-28
-32
-16
11
16
2
-2
11
18
16
28
46
32
16
35
46
37
35
32
30
28
18
42
63
21
-11
4
18
28
49
60
49
23
23
35
30
16
7
0
-14
-32
-42
-16
130
464
896
1044
348
-728
-927
-385
-91
-49
18
18
-2
35
51
28
-14
-39
-18
4
14
23
35
67
102
114
128
154
172
203
235
259
287
338
376
357
343
373
364
291
219
140
30
-51
-74
-86
-116
-123
-116
-121
-105
-74
-70
-77
-60
-32
-21
-23
-23
-23
-14
18
16
-28
-25
2
-9
-14
7
4
-9
4
23
21
11
11
14
18
23
21
-11
-53
-63
-46
-28
-16
-23
-44
-42
-16
0
9
21
18
-2
-21
-23
-23
-30
-30
-23
-18
-25
-23
-4
49
207
523
901
882
46
-833
-759
-242
-51
-7
70
84
70
93
107
107
119
135
137
140
151
149
140
140
172
214
219
214
238
275
305
333
348
348
364
385
387
378
348
287
221
151
63
-16
-77
-109
-116
-126
-130
-114
-107
-107
-91
-77
-60
-44
-44
-35
-9
2
14
25
11
0
0
0
7
11
4
-2
7
16
25
25
18
2
-11
-2
21
21
-2
2
21
21
23
18
-16
-58
-79
-84
-81
-98
-114
-91
-74
-95
-114
-121
-121
-119
-105
-81
-70
-81
-84
-51
37
242
590
920
710
-235
-917
-651
-200
-72
-4
63
53
51
77
74
67
84
95
93
70
42
39
46
53
77
93
98
119
154
177
203
235
263
284
305
324
333
319
277
217
142
65
-7
-67
-116
-154
-177
-175
-163
-158
-154
-137
-121
-116
-116
-109
-95
-81
-72
-56
-28
-16
-23
-23
-18
-23
-25
-25
-23
-28
-35
-23
-9
-2
-7
-21
-28
-23
-28
-39
-37
-37
-49
-53
-49
-46
-53
-44
-16
-11
-46
-72
-65
-60
-56
-49
-44
-32
-23
-21
-16
7
126
429
873
1146
644
-485
-969
-502
-100
-28
46
79
53
77
105
84
72
95
114
121
140
154
158
168
193
228
247
259
284
312
348
380
408
443
481
490
488
485
460
394
310
217
116
37
-14
-56
-86
-107
-126
-123
-102
-98
-95
-84
-65
-49
-32
-35
-65
-81
-63
-56
-65
-65
-65
-65
-63
-56
-49
-67
-112
-126
-105
-105
-114
-133
-161
-163
-154
-168
-189
-189
-172
-144
-109
-81
-79
-91
-102
-95
-77
-70
-72
-70
-58
-44
-23
-4
65
296
724
1177
1008
-137
-1048
-747
-193
-72
25
149
121
74
86
102
116
135
135
128
140
161
168
175
193
205
217
240
263
284
301
315
338
376
415
436
411
357
336
319
254
158
60
-35
-112
-163
-179
-179
-193
-198
-168
-142
-133
-119
-112
-102
-81
-58
-46
-44
-44
-35
-18
-9
-11
-25
-35
-28
-14
-14
-21
-21
-16
-16
-23
-18
-14
-23
-39
-58
-88
-105
-81
-60
-58
-49
-23
-7
-14
-39
-46
-37
-30
-21
-14
-16
-14
-7
14
63
214
567
1072
1249
453
-698
-852
-296
-79
-128
-70
-21
-56
-51
0
14
4
21
42
53
70
88
93
93
105
133
163
184
214
242
242
259
301
343
369
371
364
355
331
287
228
151
46
-46
-81
-98
-116
-116
-102
-79
-67
-84
-100
-128
-163
-133
-77
-74
-77
-51
-39
-35
-23
-23
-28
-25
-25
-7
7
-18
-39
-30
-18
-18
-49
-91
-109
-133
-156
-147
-142
-144
-135
-119
-98
-84
-91
-102
-109
-109
-112
-107
-88
-84
-81
-60
-44
-9
154
513
1008
1200
422
-726
-868
-305
-79
-74
16
44
28
53
53
37
60
88
98
105
116
135
151
156
158
161
177
212
247
275
294
315
348
376
387
394
418
434
373
256
175
116
37
-56
-121
-137
-130
-126
-114
-105
-100
-93
-86
-72
-53
-44
-49
-46
-25
-4
-11
-46
-63
-49
-30
-14
-16
-32
-32
-7
2
-4
-16
-30
-32
-14
-9
-28
-37
-35
-23
4
28
28
11
-9
-18
-9
-4
-9
-14
-23
-28
-28
-23
53
284
698
1097
819
-284
-973
-616
-179
-121
-70
4
-4
-18
-14
-11
0
21
39
46
49
65
88
102
107
107
121
147
179
219
252
273
296
319
343
357
329
287
270
245
172
79
-9
-81
-133
-158
-170
-203
-235
-226
-205
-191
-163
-144
-135
-114
-105
-107
-91
-67
-58
-49
-35
-28
-21
-25
-35
-21
-7
-9
-14
-2
4
-7
-23
-16
0
-2
-25
-53
-56
-37
-32
-42
-30
2
23
18
4
-2
0
-2
-9
-7
-4
0
11
14
4
0
51
235
569
917
789
-140
-957
-794
-298
-144
-100
-18
-16
-28
7
28
23
28
44
58
70
93
114
116
105
121
158
184
191
210
231
256
294
329
350
364
371
362
329
291
240
158
72
16
-37
-102
-140
-137
-133
-137
-126
-100
-81
-81
-74
-49
-21
-23
-37
-21
4
9
9
16
16
16
23
28
30
28
14
7
16
30
42
46
14
-39
-49
-21
-2
9
21
14
11
23
2
-28
-25
-11
11
39
44
25
18
23
28
21
18
14
-2
-9
7
119
406
824
1044
469
-607
-945
-485
-156
-84
-14
-2
-28
4
35
49
81
95
79
91
114
112
119
140
161
172
156
137
165
219
240
259
287
296
315
359
387
359
312
280
212
116
18
-63
-93
-81
-91
-149
-170
-149
-196
-233
-198
-172
-142
-86
-93
-126
-105
-77
-72
-51
-46
-86
-91
-60
-56
-63
-72
-79
-63
-46
-67
-98
-109
-102
-88
-81
-93
-100
-91
-84
-86
-67
-37
-35
-37
-23
-23
-35
-28
-11
-25
-51
-63
-60
-63
-39
86
397
838
1088
600
-569
-1174
-735
-291
-177
-7
112
86
79
114
130
130
147
168
170
165
163
151
116
130
186
214
235
268
280
294
336
380
415
448
462
474
467
406
343
275
144
7
-84
-144
-186
-198
-207
-221
-210
-193
-198
-182
-147
-137
-130
-109
-100
-95
-93
-102
-102
-88
-84
-79
-63
-56
-63
-56
-56
-72
-67
-56
-63
-63
-65
-65
-49
-30
-16
-4
-11
-32
-44
-49
-56
-60
-72
-74
-53
-42
-39
-25
2
168
597
1118
1198
210
-1118
-1228
-548
-315
-259
-58
-16
-95
-91
-49
-49
-49
-23
-7
2
21
21
2
11
46
74
98
123
144
184
228
254
282
322
343
357
364
352
298
196
79
-14
-81
-137
-189
-226
-238
-231
-219
-217
-214
-207
-191
-172
-161
-149
-142
-144
-137
-121
-107
-86
-67
-95
-140
-137
-112
-102
-112
-130
-140
-130
-130
-144
-163
-184
-196
-189
-168
-161
-203
-261
-289
-303
-289
-259
-263
-254
-238
-303
-326
-261
-242
-172
137
672
1216
990
-387
-1361
-945
-446
-422
-287
-170
-240
-207
-105
-126
-161
-123
-98
-86
-63
-46
-14
23
28
32
63
95
114
137
172
205
242
289
317
319
324
326
305
259
179
72
-25
-98
-142
-170
-193
-207
-207
-193
-186
-205
-212
-172
-140
-151
-163
-154
-161
-170
-154
-121
-98
-95
-98
-93
-102
-119
-119
-98
-67
-60
-74
-65
-53
-72
-74
-51
-39
-32
-9
4
2
2
4
4
2
2
9
18
16
9
16
65
219
546
1001
1265
658
-604
-1027
-457
-109
-88
11
42
-9
18
51
37
16
-2
0
21
30
39
56
51
51
77
98
123
161
182
198
245
305
329
301
280
277
247
196
142
63
-30
-107
-170
-224
-252
-261
-261
-252
-247
-247
-240
-224
-203
-184
-175
-168
-163
-151
-133
-135
-149
-144
-121
-123
-123
-95
-95
-126
-121
-84
-81
-105
-109
-102
-93
-67
-49
-53
-44
-28
-16
4
28
37
37
23
16
18
-4
-23
-14
-9
-14
7
63
198
471
836
1065
639
-439
-985
-565
-170
-112
-7
56
16
39
79
32
-4
28
67
72
67
81
102
119
142
161
163
184
228
263
296
310
301
312
366
401
397
364
324
277
217
142
72
16
-56
-119
-121
-105
-107
-102
-88
-95
-100
-72
-44
-42
-37
-23
-35
-58
-53
-42
-44
-30
-4
-11
-35
-35
-16
2
2
-16
-30
-16
4
4
2
28
42
37
46
72
81
72
30
-16
-11
2
-16
-9
21
28
21
32
65
137
345
714
1046
817
-205
-1008
-773
-268
-102
18
126
91
42
56
70
77
91
88
67
67
88
109
116
123
130
135
168
238
275
249
245
277
291
310
362
380
340
296
261
205
123
30
-42
-91
-123
-149
-172
-172
-154
-140
-128
-112
-98
-91
-72
-56
-49
-37
-25
-16
0
16
7
-9
-28
-63
-67
-42
-49
-67
-65
-53
-49
-39
-28
-21
-28
-32
-18
-2
16
39
53
51
53
53
49
44
42
46
63
70
65
65
81
163
422
838
1107
689
-404
-1011
-630
-189
-67
49
121
91
98
123
105
93
102
100
105
119
112
112
135
156
172
191
200
214
252
291
326
366
394
406
422
439
425
376
291
172
53
-30
-95
-151
-182
-203
-214
-210
-200
-184
-170
-165
-144
-112
-100
-98
-86
-74
-58
-42
-32
-30
-30
-30
-32
-51
-65
-63
-70
-72
-60
-56
-60
-56
-49
-46
-30
2
30
23
4
16
25
25
32
25
2
11
35
51
70
154
422
889
1307
1074
-109
-1086
-833
-280
-182
-84
65
32
-11
51
77
58
72
81
70
67
70
67
67
46
35
86
133
142
161
203
252
289
312
338
366
376
371
333
247
130
14
-105
-205
-259
-296
-331
-336
-324
-324
-310
-287
-284
-280
-252
-224
-207
-186
-182
-193
-172
-137
-123
-123
-102
-84
-84
-81
-72
-63
-58
-53
-56
-63
-44
-28
-42
-32
2
-16
-44
-9
11
0
9
0
-18
18
93
242
637
1195
1413
583
-854
-1212
-516
-193
-172
46
144
63
65
130
130
98
72
77
116
116
88
112
147
137
137
196
242
235
263
333
357
378
432
441
434
450
434
348
231
114
9
-79
-168
-235
-266
-280
-270
-256
-259
-249
-219
-207
-207
-179
-161
-170
-147
-114
-105
-88
-65
-53
-44
-49
-53
-37
-21
-25
-32
-21
-9
0
-4
-9
-18
-46
-63
-46
-35
-42
-39
-42
-39
-7
88
364
873
1371
1149
-142
-1128
-754
-200
-156
-49
98
84
84
114
116
128
142
137
128
109
91
100
126
147
149
161
196
212
219
256
296
310
331
359
364
348
317
266
207
126
23
-74
-161
-219
-235
-240
-240
-226
-219
-212
-189
-161
-144
-135
-130
-114
-93
-86
-81
-70
-79
-114
-126
-95
-74
-100
-137
-133
-100
-95
-102
-81
-56
-51
-46
-30
-21
-25
-44
-44
-16
7
9
14
32
91
289
731
1345
1557
567
-829
-924
-240
-79
-93
72
95
42
93
130
109
116
142
158
170
168
172
191
207
224
249
270
291
315
331
343
371
411
436
441
439
432
399
333
247
126
-7
-98
-154
-205
-240
-245
-228
-219
-214
-198
-177
-170
-161
-149
-156
-184
-182
-156
-147
-133
-114
-107
-109
-112
-105
-86
-86
-93
-95
-102
-95
-58
-39
-46
-44
-37
-30
-32
-32
-16
-7
-16
-7
18
30
93
371
931
1597
1588
275
-959
-698
-98
-95
-60
95
65
37
100
105
70
77
109
119
107
95
88
105
140
168
184
205
231
259
275
305
355
387
385
373
383
385
345
266
140
7
-77
-137
-198
-221
-228
-252
-266
-249
-238
-240
-233
-228
-221
-198
-184
-182
-172
-156
-140
-130
-133
-130
-116
-107
-107
-98
-93
-95
-93
-86
-81
-70
-60
-49
-28
-9
-9
-25
-39
-44
-39
-23
-9
-4
-9
-18
-7
84
366
924
1555
1441
86
-1027
-681
-112
-116
-67
84
63
44
100
100
86
116
133
137
156
161
156
168
191
210
217
207
200
235
287
317
340
371
394
415
432
422
385
317
226
130
37
-42
-100
-142
-158
-156
-147
-137
-130
-130
-121
-109
-119
-133
-137
-142
-137
-123
-112
-100
-98
-121
-137
-121
-105
-105
-107
-105
-98
-84
-84
-91
-95
-95
-77
-46
-25
-9
-16
-25
-11
-4
-9
0
4
-7
-2
18
28
60
233
653
1284
1613
761
-714
-1015
-338
-88
-128
11
53
-4
37
79
60
72
100
100
107
128
144
156
170
184
200
217
228
247
277
308
340
373
404
418
397
362
324
263
182
88
-14
-95
-149
-184
-196
-203
-210
-200
-184
-184
-179
-175
-177
-172
-161
-149
-137
-130
-135
-133
-121
-109
-102
-98
-95
-86
-81
-74
-72
-74
-72
-60
-56
-56
-63
-95
-112
-98
-95
-91
-74
-60
-35
0
7
-2
-7
-2
-2
-4
-11
-11
-2
7
23
51
154
457
987
1459
1093
-254
-1030
-534
-65
-72
7
98
51
58
105
102
109
135
140
142
154
163
179
198
210
217
226
235
249
273
298
324
352
387
418
434
432
411
369
301
217
114
0
-84
-128
-151
-165
-172
-186
-217
-226
-200
-175
-168
-161
-149
-137
-126
-128
-128
-119
-114
-102
-86
-72
-65
-67
-67
-58
-44
-37
-35
-49
-67
-65
-44
-30
-28
-28
-25
-14
0
9
14
11
11
23
28
21
14
2
7
32
60
81
88
74
60
67
72
70
70
67
67
79
91
107
175
394
798
1226
1128
88
-887
-700
-128
7
51
154
130
88
119
126
109
116
95
56
58
77
77
79
58
32
58
100
121
151
179
186
196
233
277
303
308
303
287
252
191
112
16
-65
-116
-144
-168
-186
-193
-186
-172
-151
-133
-121
-114
-105
-88
-70
-58
-53
-49
-39
-28
-16
-7
-7
-11
-7
0
7
14
16
14
11
14
21
28
30
28
16
9
18
28
23
28
35
37
46
51
44
46
51
53
46
4
-44
-58
-63
-60
-30
-7
-7
-4
-2
-18
-39
-46
-49
-56
-53
-49
-56
-60
0
205
581
1004
1022
121
-927
-887
-294
-91
-46
58
67
42
77
100
93
95
112
128
133
142
156
168
182
203
219
238
259
280
301
319
348
380
406
427
446
446
422
380
317
235
147
60
-11
-58
-84
-100
-105
-128
-156
-165
-175
-175
-147
-126
-116
-107
-95
-84
-65
-53
-63
-74
-67
-49
-37
-39
-44
-49
-56
-53
-42
-39
-42
-42
-39
-28
-18
-14
-25
-39
-42
-39
-49
-56
-74
-109
-119
-95
-84
-84
-81
-84
-88
-91
-79
-70
-77
-86
-77
-56
-37
-16
0
7
11
16
16
14
7
2
16
30
28
7
-2
32
186
518
957
1156
509
-679
-1004
-432
-105
-79
25
77
49
77
116
109
105
126
142
154
170
182
184
193
214
238
256
273
289
315
352
390
422
446
462
474
483
474
443
383
287
182
88
7
-58
-102
-128
-137
-135
-128
-121
-119
-112
-100
-93
-88
-91
-100
-100
-84
-72
-65
-67
-88
-105
-91
-79
-77
-77
-77
-77
-72
-70
-77
-79
-74
-72
-63
-49
-49
-77
-100
-86
-70
-63
-53
-46
-42
-32
-28
-18
-7
-4
-2
7
11
14
9
7
18
35
56
81
93
79
58
46
51
53
53
58
63
63
72
93
151
352
731
1123
1069
156
-819
-742
-177
14
74
182
168
119
133
147
147
156
165
170
182
186
179
184
196
200
207
224
245
263
291
324
355
383
411
413
378
350
338
287
198
93
-28
-116
-172
-224
-259
-275
-280
-268
-256
-247
-231
-214
-210
-200
-175
-158
-149
-137
-121
-102
-91
-84
-79
-74
-65
-56
-51
-49
-49
-46
-37
-28
-21
-18
-18
-18
-28
-44
-42
-32
-32
-30
-18
-14
-23
-28
-23
-18
-7
4
11
11
7
4
7
21
35
44
58
74
81
77
72
65
53
51
63
74
74
51
23
51
210
537
950
1130
506
-621
-943
-399
-58
-9
95
144
112
135
170
156
149
165
170
170
177
177
175
193
214
226
238
259
280
298
303
310
326
333
352
383
373
336
305
249
163
77
-14
-91
-144
-193
-219
-214
-207
-205
-207
-212
-189
-151
-142
-142
-126
-114
-119
-102
-65
-56
-74
-79
-58
-46
-39
-39
-70
-86
-63
-37
-42
-84
-112
-81
-60
-81
-74
-51
-63
-49
-21
-46
-81
-70
-60
-65
-58
-39
-39
-42
-28
-23
-23
7
28
-2
-53
-53
-30
-58
-79
-53
-37
-44
-44
-23
0
116
490
1053
1371
681
-745
-1261
-649
-228
-170
-7
88
14
9
79
91
84
100
112
107
102
121
142
144
144
158
172
193
224
259
298
322
322
350
401
357
252
266
312
224
74
-65
-207
-326
-397
-420
-425
-457
-441
-387
-413
-434
-404
-404
-385
-362
-390
-394
-366
-333
-296
-305
-324
-291
-266
-259
-240
-228
-231
-242
-238
-221
-205
-170
-158
-196
-198
-163
-165
-154
-100
-128
-186
-142
-95
-119
-116
-107
-119
-93
-79
-93
-91
-91
-74
-32
-18
-23
-25
-35
-9
112
397
948
1597
1333
-102
-924
-453
-105
-200
-109
-2
-39
-23
21
16
21
14
-18
-11
32
46
51
84
107
126
170
205
210
219
252
294
340
387
425
455
471
462
439
378
275
182
119
46
-39
-121
-142
-91
-56
-93
-177
-210
-149
-100
-144
-161
-81
-51
-79
-60
-21
0
-18
-37
-21
-18
2
39
9
-14
7
32
49
28
16
21
2
2
53
105
30
-109
-86
-16
-91
-193
-147
21
18
-168
-81
114
-49
-175
-25
0
-86
-65
-42
-81
-42
-7
-63
-30
98
193
413
894
1270
754
-590
-1265
-733
-189
-79
49
161
135
98
84
126
198
189
126
151
207
205
189
177
196
242
252
261
305
338
345
371
411
448
474
492
513
488
446
439
373
228
88
-23
-79
-119
-186
-210
-170
-158
-165
-151
-137
-112
-79
-88
-81
-56
-72
-56
-21
-32
-39
-39
-44
-37
-51
-56
-28
-18
-39
-28
7
-23
-72
-56
-18
-16
-28
-16
7
-9
-37
-23
2
14
16
-9
-28
-4
35
32
2
51
135
119
51
32
35
23
35
67
74
72
72
65
84
147
366
810
1333
1296
123
-1006
-796
-175
-51
2
112
88
65
95
72
49
81
119
137
116
74
105
177
189
165
200
238
235
256
242
189
277
474
488
408
478
541
457
371
329
273
177
37
-58
-67
-107
-205
-214
-93
-32
-72
-72
-74
-119
-130
-126
-95
-56
-56
-39
-35
-123
-149
-79
-100
-165
-105
-56
-177
-226
-91
-114
-233
-133
-51
-67
-49
-112
-53
147
107
-135
-277
-88
137
-86
-319
-116
35
-81
-128
-77
-88
-67
70
46
-228
-261
-42
-39
-149
-56
81
53
149
604
1247
1784
1314
-324
-1097
-338
130
-135
-133
158
135
35
107
128
123
105
63
88
186
203
116
121
165
172
245
275
214
228
277
282
362
499
455
443
663
665
544
548
420
224
193
189
14
-116
-100
-81
-4
98
4
-79
32
0
-86
0
60
32
7
56
-2
-74
72
72
-84
-46
119
156
42
51
121
0
-133
-67
11
-28
-119
-126
-7
-23
-128
-147
-114
-79
-123
-91
7
-81
-130
-35
-79
-126
-32
2
-53
-65
7
46
144
574
1298
1779
1051
-635
-1230
-460
-37
-74
105
165
93
233
287
165
189
294
268
175
242
340
338
343
263
249
422
469
406
450
499
530
588
616
604
593
649
714
625
471
366
235
74
-102
-224
-149
-51
-165
-263
-158
-107
-154
-170
-186
-133
-25
-56
-130
-63
18
-14
-60
-93
-11
109
-28
-95
42
21
-79
-39
37
18
53
98
-53
-135
-14
30
9
-16
-37
25
23
-42
42
121
63
14
44
56
18
58
151
151
102
140
235
455
983
1618
1539
163
-1069
-717
-49
9
126
263
186
189
280
291
249
245
331
390
301
261
336
420
394
289
364
481
390
329
392
453
518
406
238
476
724
467
280
499
541
371
333
273
107
49
116
116
119
238
275
217
289
406
359
308
504
527
240
343
632
523
387
537
632
516
427
464
490
509
534
488
481
553
504
406
448
483
380
350
485
511
418
373
352
362
366
359
340
235
175
261
362
355
357
663
1263
1868
1896
644
-733
-502
168
196
352
502
385
394
492
509
527
604
600
560
660
721
625
572
677
803
789
677
698
833
775
770
885
819
852
990
969
952
973
892
784
689
567
464
364
259
182
217
338
369
340
355
355
319
352
448
469
478
572
551
441
422
502
604
607
579
590
597
637
625
569
586
635
646
621
646
646
593
639
726
733
719
726
724
693
665
670
677
686
742
684
546
618
787
1008
1627
2447
2358
829
-443
-137
404
404
525
693
679
644
707
801
721
649
721
740
752
780
759
836
929
836
735
887
1037
931
901
1067
1086
1048
1158
1212
1144
1167
1186
1008
868
840
728
558
434
485
544
401
362
467
476
453
495
555
539
511
588
614
518
485
562
614
569
490
525
649
611
530
586
600
555
546
511
478
548
607
597
667
691
588
562
583
565
548
558
623
644
516
448
607
740
707
852
1441
2316
2485
1044
-429
-214
439
460
530
733
625
537
705
707
621
707
681
581
670
766
649
488
553
770
803
621
593
787
861
787
824
948
973
938
915
908
943
889
745
653
544
399
326
310
301
259
263
305
301
338
317
247
287
369
373
310
319
376
369
418
446
359
413
541
490
453
586
665
693
754
705
665
761
843
852
833
885
952
971
950
880
854
896
915
959
1022
1011
966
985
1158
1525
2139
2977
2914
1284
88
511
917
798
922
1030
903
906
1015
999
983
1055
1034
943
976
1079
1074
952
906
957
934
924
1013
1051
1034
1058
1114
1128
1132
1177
1128
1032
1053
1076
943
775
721
639
506
532
572
467
413
406
436
520
541
518
499
474
469
497
490
460
467
434
383
411
432
369
406
502
406
305
387
348
161
191
310
301
282
303
298
263
249
247
268
256
228
245
214
221
261
198
221
385
710
1534
2386
1704
-172
-838
-191
91
-44
-9
93
100
53
44
109
137
126
121
79
91
133
121
123
161
193
191
182
200
198
217
291
322
280
196
214
322
303
249
191
44
-39
-72
-193
-275
-266
-280
-298
-261
-207
-207
-266
-322
-261
-182
-249
-291
-193
-123
-137
-186
-228
-158
-84
-147
-189
-149
-116
-105
-102
-147
-203
-168
-144
-191
-170
-105
-116
-156
-135
-109
-79
-44
-128
-184
-86
-79
-156
-116
-25
-7
16
231
812
1719
1940
525
-950
-815
-214
-154
-154
-81
-72
-63
-65
-51
37
84
37
11
91
158
95
25
65
135
149
186
226
210
301
362
280
340
436
415
432
450
385
280
228
196
25
-172
-231
-245
-256
-235
-261
-256
-177
-177
-207
-186
-193
-193
-102
-79
-163
-144
-93
-154
-123
-53
-128
-142
-93
-126
-142
-147
-168
-165
-184
-193
-133
-128
-200
-170
-98
-140
-154
-100
-119
-151
-121
-151
-198
-123
-109
-184
-179
-123
-79
86
597
1371
1609
411
-1109
-1081
-350
-303
-376
-182
-109
-172
-189
-135
-86
-156
-207
-130
-149
-233
-184
-149
-189
-147
-86
-128
-109
51
63
-23
70
182
165
151
175
179
109
16
-51
-168
-273
-340
-434
-471
-450
-460
-471
-467
-464
-432
-369
-352
-383
-350
-275
-282
-310
-238
-165
-282
-362
-226
-177
-245
-221
-207
-273
-275
-235
-261
-284
-259
-226
-242
-294
-301
-249
-252
-315
-259
-198
-301
-378
-322
-277
-305
-343
-357
-378
-413
-427
-406
-343
-135
385
1149
1139
-348
-1564
-1179
-623
-663
-632
-565
-637
-590
-518
-588
-583
-499
-509
-548
-604
-646
-565
-502
-553
-567
-485
-439
-446
-404
-364
-371
-350
-322
-291
-217
-200
-231
-200
-231
-350
-427
-478
-534
-583
-646
-663
-611
-609
-693
-766
-766
-763
-803
-861
-962
-1044
-1048
-1062
-1090
-1104
-1172
-1247
-1244
-1226
-1289
-1345
-1291
-1254
-1291
-1335
-1382
-1413
-1431
-1443
-1431
-1441
-1448
-1406
-1373
-1403
-1424
-1408
-1436
-1473
-1466
-1464
-1450
-1436
-1424
-1366
-1340
-1356
-1282
-997
-450
121
-119
-1466
-2349
-1866
-1305
-1256
-1195
-1118
-1128
-1097
-1055
-1044
-1020
-985
-959
-920
-857
-838
-859
-866
-831
-766
-721
-707
-674
-663
-684
-625
-525
-523
-576
-565
-523
-527
-560
-576
-604
-667
-756
-817
-847
-896
-924
-868
-810
-810
-840
-880
-894
-864
-824
-817
-838
-787
-735
-815
-887
-805
-679
-635
-630
-658
-721
-740
-714
-660
-621
-644
-630
-546
-532
-621
-677
-642
-586
-520
-497
-516
-495
-481
-497
-474
-443
-485
-518
-446
-420
-488
-467
-355
-228
39
462
728
317
-752
-1331
-913
-448
-364
-282
-175
-156
-182
-203
-191
-158
-142
-151
-151
-135
-112
-98
-114
-128
-93
-88
-163
-182
-119
-105
-112
-60
-18
16
35
21
2
-53
-98
-102
-144
-214
-294
-383
-411
-376
-369
-373
-345
-312
-277
-275
-296
-277
-256
-280
-275
-249
-256
-224
-191
-242
-233
-161
-186
-214
-184
-193
-198
-161
-128
-133
-163
-179
-161
-123
-91
-70
-93
-140
-100
-39
-81
-135
-119
-81
-72
-102
-168
-182
-147
-119
58
467
868
822
-2
-943
-997
-460
-170
-123
-74
-70
-119
-121
-49
-23
-102
-81
25
0
-53
-18
-11
9
65
32
-9
37
74
60
70
109
133
95
74
144
128
7
7
44
-56
-165
-193
-228
-287
-333
-322
-270
-254
-240
-228
-259
-261
-214
-182
-203
-182
-149
-219
-252
-168
-147
-196
-207
-226
-238
-165
-128
-221
-294
-226
-168
-186
-161
-133
-161
-149
-119
-142
-133
-114
-144
-140
-107
-88
-70
-100
-161
-140
-88
-81
81
509
1013
1146
289
-908
-1011
-387
-123
-95
4
63
53
32
21
37
51
56
98
98
44
74
135
109
107
156
175
177
193
196
184
198
228
219
221
268
275
221
154
93
28
-35
-112
-170
-191
-205
-191
-156
-158
-179
-170
-151
-142
-121
-93
-60
-79
-135
-105
-46
-67
-46
-7
-53
-88
-93
-86
-42
-18
-39
-53
-95
-128
-84
-23
-23
-42
-32
-37
-30
-2
-9
-11
-9
-30
-11
11
16
53
81
219
637
1219
1352
394
-784
-831
-296
-116
-53
53
53
46
60
46
51
74
70
86
109
86
81
133
161
142
137
186
233
226
224
226
205
266
312
214
189
287
259
107
18
-9
-93
-172
-154
-147
-256
-345
-317
-266
-245
-252
-249
-221
-205
-172
-121
-102
-130
-182
-170
-105
-107
-121
-93
-109
-123
-81
-74
-95
-109
-151
-168
-128
-102
-91
-77
-65
-67
-77
-81
-112
-151
-154
-135
-95
-53
-51
-67
-9
282
805
1268
1022
-161
-1037
-738
-184
-35
14
65
28
28
91
105
100
100
91
133
175
137
114
149
184
200
221
252
270
256
261
303
338
355
322
270
273
273
231
175
116
16
-91
-121
-128
-175
-184
-175
-200
-191
-128
-123
-161
-154
-123
-102
-88
-100
-112
-93
-65
-53
-42
-46
-98
-123
-70
-23
-44
-56
-18
7
16
37
30
-7
7
51
32
7
44
60
-21
-65
23
93
53
16
100
331
696
1104
1069
144
-805
-724
-186
18
105
210
207
154
116
102
119
126
151
189
165
144
175
186
163
170
217
242
219
217
280
310
273
273
315
312
289
268
228
175
109
49
-21
-112
-172
-235
-303
-289
-252
-263
-238
-191
-198
-191
-149
-163
-170
-109
-109
-179
-175
-133
-177
-219
-151
-84
-91
-98
-91
-102
-105
-98
-100
-91
-65
-58
-63
-35
-18
-53
-74
-49
-37
-44
-63
-72
-60
-53
-25
154
497
864
871
84
-875
-950
-455
-175
-79
2
7
-25
-25
-4
4
9
37
63
72
72
74
102
142
168
191
207
212
235
284
324
319
298
338
383
362
338
333
275
193
121
39
-44
-102
-149
-186
-203
-205
-191
-175
-172
-161
-144
-142
-123
-98
-102
-109
-91
-70
-65
-60
-63
-74
-81
-72
-70
-74
-77
-60
-35
-9
4
2
-14
-25
-16
-21
-49
-81
-105
-79
-46
-53
53
385
819
1114
731
-399
-1053
-679
-256
-135
14
86
49
67
100
95
121
154
133
119
151
177
193
210
212
226
252
273
296
319
331
345
371
392
404
401
380
352
301
214
126
46
-35
-109
-154
-172
-184
-189
-177
-168
-158
-149
-158
-172
-172
-168
-165
-163
-154
-142
-154
-172
-168
-156
-151
-177
-245
-273
-247
-249
-254
-217
-179
-170
-170
-177
-186
-186
-175
-158
-154
-147
-133
-126
-123
-95
-11
196
602
1109
1135
170
-866
-798
-249
-100
-72
16
11
16
58
60
56
65
88
100
93
107
121
130
175
205
193
196
231
256
254
270
329
369
348
322
345
357
326
287
189
44
-67
-84
-67
-121
-179
-170
-156
-193
-214
-156
-133
-210
-219
-170
-203
-219
-198
-207
-158
-79
-98
-151
-140
-133
-156
-121
-49
-51
-116
-135
-88
-49
-42
-60
-95
-51
42
14
-25
23
9
-25
-9
-11
-32
18
259
665
1053
978
51
-873
-740
-210
-63
53
207
140
79
149
161
121
142
161
130
130
163
149
137
168
198
254
303
277
226
228
284
331
338
326
336
357
336
294
254
177
56
-23
-65
-114
-135
-144
-170
-161
-95
-63
-93
-116
-105
-91
-77
-81
-95
-88
-74
-77
-93
-102
-98
-84
-84
-114
-130
-123
-133
-142
-144
-140
-121
-119
-112
-67
-32
-46
-65
-63
-58
-60
-79
-95
-81
-84
-114
-95
-21
135
443
829
866
95
-871
-936
-408
-142
-79
4
16
-2
21
23
14
32
42
42
49
25
7
35
60
65
77
105
130
147
170
193
219
266
305
310
305
289
245
186
126
53
-23
-84
-130
-163
-177
-179
-165
-154
-151
-137
-116
-102
-98
-98
-95
-102
-109
-93
-81
-91
-95
-95
-102
-114
-109
-93
-100
-107
-95
-88
-95
-95
-84
-67
-70
-77
-65
-42
-21
7
39
35
-9
-7
14
-9
-11
28
35
21
23
46
177
481
840
1015
565
-457
-962
-553
-123
-16
67
126
86
81
142
175
135
86
116
177
179
182
212
224
228
247
280
298
294
305
357
401
418
411
397
390
380
350
305
233
133
58
37
-14
-98
-119
-93
-84
-114
-158
-144
-95
-100
-130
-109
-67
-70
-67
-44
-56
-65
-51
-56
-42
-4
-23
-56
-39
-35
-44
-18
-11
-70
-147
-168
-140
-121
-105
-86
-93
-109
-109
-84
-58
-44
-35
-25
-11
0
-2
-7
0
-7
-28
-9
11
0
9
112
340
689
908
429
-565
-934
-513
-163
-67
11
49
32
42
58
56
63
79
100
116
116
116
126
135
149
165
186
200
203
217
254
310
343
345
373
399
366
308
259
203
121
28
-44
-86
-119
-140
-147
-154
-154
-137
-130
-140
-147
-140
-123
-105
-79
-67
-63
-42
-25
-16
-4
-18
-23
-2
-25
-63
-30
-14
-63
-58
2
7
-16
-14
-2
-4
9
53
67
32
14
16
21
39
53
81
123
109
72
70
107
144
126
102
116
128
105
86
140
333
665
1030
1044
263
-672
-707
-212
7
63
149
144
105
177
238
191
184
198
177
182
175
154
158
137
119
177
245
235
231
280
296
289
298
310
340
357
322
277
266
233
130
16
-63
-109
-133
-156
-177
-163
-140
-119
-98
-107
-112
-86
-84
-105
-107
-79
-70
-88
-53
11
-7
-49
-35
-37
-56
-46
-35
-35
-30
-14
9
7
-14
-9
7
2
-11
-9
16
30
7
-9
7
28
30
42
53
23
-25
-23
-4
-25
-32
-28
-63
-102
-105
-91
-60
102
502
978
973
63
-866
-768
-270
-140
-116
-51
-53
-46
-21
-9
18
46
49
53
67
77
56
49
119
172
168
196
228
198
193
256
315
326
345
380
404
404
362
294
233
165
86
16
-56
-84
-49
-49
-81
-77
-63
-60
-51
-37
-16
18
30
16
11
16
42
67
44
-4
-2
28
2
-46
-39
-14
-25
-23
2
14
18
23
30
44
49
28
23
49
56
51
63
74
74
70
44
18
25
32
39
65
81
93
88
35
0
21
25
0
-14
-2
25
46
53
98
317
726
1006
628
-310
-789
-464
-100
2
79
133
114
116
140
142
144
163
172
170
175
179
161
149
158
154
168
212
252
277
284
287
317
359
383
383
336
261
238
228
158
70
7
-39
-95
-121
-112
-135
-161
-133
-119
-140
-123
-86
-102
-123
-81
-53
-58
-37
-16
-28
-42
-35
-23
-16
-16
-18
-16
-18
-21
-25
-44
-58
-60
-79
-81
-60
-49
-30
-35
-88
-109
-67
-39
-65
-100
-98
-98
-123
-119
-95
-100
-95
-77
-81
-67
-25
-21
-25
-7
2
-14
-21
-11
-28
-60
-67
-46
-28
-16
18
149
399
703
770
200
-602
-731
-326
-63
32
109
126
102
116
151
161
168
182
182
179
193
205
219
235
245
252
273
308
324
326
338
376
415
425
434
450
443
425
404
357
282
189
100
39
-2
-25
-37
-44
-42
-35
-30
-21
-4
0
7
35
63
60
37
28
32
35
51
67
30
-28
-46
-39
-28
-7
-16
-39
-49
-51
-46
-51
-56
-44
-32
-30
-23
-11
-9
-4
0
-4
7
30
21
14
28
32
21
14
21
46
81
107
93
60
53
51
42
53
63
32
-16
-35
-21
0
74
301
656
938
670
-210
-740
-474
-119
2
84
128
114
112
121
133
163
179
172
163
163
175
189
191
203
219
226
238
266
294
296
284
298
338
364
383
399
397
376
336
280
212
123
44
14
-2
-35
-53
-58
-72
-77
-63
-51
-60
-70
-53
-30
-28
-21
-9
-16
-21
-30
-70
-86
-70
-63
-60
-51
-49
-49
-44
-42
-32
-23
-28
-25
-16
-9
4
4
4
18
23
9
2
7
16
28
32
35
42
39
39
42
37
42
63
79
91
93
63
39
51
51
44
70
79
65
74
88
91
119
254
548
948
1114
497
-504
-726
-259
14
67
144
156
130
158
182
151
135
151
165
175
191
210
217
207
214
252
284
294
303
338
376
399
425
453
467
476
471
448
408
345
259
161
79
25
-14
-44
-77
-102
-112
-116
-128
-130
-121
-107
-98
-95
-79
-67
-100
-133
-105
-79
-84
-81
-79
-79
-70
-74
-88
-100
-130
-140
-109
-100
-102
-86
-84
-84
-65
-53
-77
-100
-93
-74
-67
-46
-30
-35
-35
-16
-9
-4
2
0
-7
-2
14
46
70
72
63
58
65
70
58
44
46
65
79
84
86
86
172
455
880
1209
913
-137
-819
-513
-95
16
123
191
156
170
205
193
189
200
198
205
212
214
221
221
224
249
287
301
280
263
301
340
357
378
392
390
401
411
387
333
252
142
37
-42
-107
-161
-198
-214
-221
-221
-212
-179
-165
-191
-175
-121
-109
-121
-109
-95
-88
-70
-58
-58
-49
-39
-39
-35
-25
-21
-25
-23
-21
-23
-14
0
9
14
11
14
21
25
32
28
11
4
11
23
32
30
32
37
35
25
28
32
42
65
67
28
-14
-32
-30
-21
-18
-18
-9
2
18
35
39
123
399
861
1277
990
-156
-861
-485
-58
-18
39
107
84
86
116
126
135
135
137
163
179
172
182
200
207
221
245
252
235
226
261
310
324
343
378
390
383
376
343
282
210
130
39
-56
-130
-177
-207
-224
-228
-219
-214
-214
-207
-200
-210
-214
-205
-221
-256
-242
-203
-193
-198
-191
-184
-184
-175
-161
-161
-177
-182
-168
-161
-151
-135
-123
-123
-123
-116
-107
-102
-93
-84
-72
-56
-42
-39
-39
-32
-14
2
2
-2
4
14
23
39
46
28
25
39
37
37
67
81
70
70
77
74
74
65
53
67
93
105
105
112
210
478
887
1179
761
-296
-801
-399
-18
35
81
102
60
79
116
107
95
91
95
123
147
147
151
161
175
189
198
221
238
233
263
317
340
355
392
406
385
373
359
305
226
140
60
-9
-63
-98
-130
-154
-161
-156
-133
-121
-130
-126
-98
-74
-72
-70
-63
-58
-44
-23
-9
-7
-11
-9
4
11
2
-16
-28
-21
-16
-14
-2
2
-2
2
16
23
7
-16
-7
23
18
14
42
35
-14
-18
0
2
4
7
2
7
18
37
32
-2
-18
-4
-9
-11
16
37
46
56
65
79
84
60
39
32
32
39
49
60
72
74
79
158
390
742
1067
852
-77
-717
-467
-67
39
98
154
137
114
130
142
133
130
137
140
142
151
156
156
156
165
184
198
214
233
247
249
263
301
333
340
329
308
289
266
210
142
58
-25
-79
-112
-137
-142
-142
-144
-133
-119
-116
-109
-98
-91
-81
-65
-56
-51
-46
-37
-18
-7
-9
-11
0
16
18
14
14
16
23
30
32
35
42
46
37
14
16
39
39
23
32
46
49
42
30
21
28
42
53
60
65
58
53
63
77
77
60
49
58
86
119
137
128
116
121
109
93
93
74
32
35
65
74
74
98
224
527
945
1142
558
-490
-798
-326
-23
23
100
112
65
84
119
121
121
121
119
140
154
147
142
142
133
116
114
140
165
172
198
240
266
287
310
315
312
319
310
254
154
32
-46
-88
-133
-168
-189
-212
-207
-184
-175
-158
-137
-140
-128
-100
-88
-81
-63
-49
-44
-35
-16
-11
-23
-28
-16
0
4
-11
-42
-56
-49
-44
-35
-21
-16
-11
-2
2
9
16
11
2
9
37
51
46
46
49
32
14
9
11
21
30
28
16
2
0
9
25
53
79
81
74
70
65
70
77
65
56
67
84
86
88
123
273
574
936
1053
439
-513
-714
-273
-21
35
116
130
98
105
116
102
100
102
95
88
86
100
109
84
67
84
109
133
144
154
184
228
259
280
305
326
350
350
312
252
172
88
18
-53
-121
-158
-177
-179
-161
-151
-154
-144
-126
-109
-91
-79
-72
-58
-39
-35
-28
-14
-7
-7
0
16
21
14
16
25
25
23
30
42
46
46
35
23
32
42
39
42
49
58
65
81
100
86
56
42
51
63
53
35
23
25
30
25
25
35
49
74
98
100
86
70
44
21
14
16
2
-39
-51
-7
25
100
340
707
1011
735
-228
-838
-548
-147
-39
21
84
93
79
70
91
126
123
98
84
81
98
116
123
130
128
128
158
179
196
224
261
310
350
383
415
439
413
350
331
326
233
102
23
-25
-63
-81
-98
-112
-114
-105
-93
-93
-86
-56
-53
-116
-193
-182
-86
-25
-63
-135
-140
-86
-67
-53
-2
14
-16
-14
-7
-32
-16
25
25
-21
-74
-53
23
51
28
21
25
4
-11
21
37
11
16
28
21
28
49
58
46
56
98
98
95
151
133
25
30
95
81
65
98
116
116
151
273
485
859
1226
854
-287
-896
-518
-123
-56
37
119
95
72
51
46
72
56
42
67
65
81
133
137
130
158
184
212
228
217
226
254
287
350
390
369
359
348
305
282
235
121
-14
-109
-161
-177
-186
-233
-249
-205
-212
-252
-226
-172
-165
-177
-151
-119
-107
-100
-95
-91
-74
-88
-107
-100
-107
-114
-105
-128
-149
-119
-86
-77
-84
-107
-112
-91
-109
-154
-144
-102
-95
-98
-88
-77
-58
-39
-37
-56
-93
-112
-88
-63
-39
-11
-11
-25
-14
0
-2
-7
-16
-11
11
16
21
88
254
581
1006
1051
254
-644
-635
-172
-2
25
86
77
56
86
93
88
119
140
121
114
151
175
179
179
177
200
238
238
226
219
226
270
322
350
359
350
336
312
263
203
130
39
-18
-30
-91
-191
-224
-212
-224
-231
-189
-161
-200
-217
-161
-140
-154
-121
-88
-109
-112
-86
-93
-100
-88
-86
-72
-35
-16
-39
-77
-77
-39
-2
0
-16
-23
-9
14
35
39
18
-18
-7
25
30
42
46
11
-7
23
70
72
44
25
18
39
74
77
63
37
7
9
39
46
16
0
23
44
49
65
112
277
621
962
798
-30
-674
-572
-245
-46
133
238
186
126
140
142
121
109
98
107
121
98
88
121
149
170
196
196
196
231
261
259
282
329
315
282
312
329
277
228
205
142
53
-4
-30
-74
-149
-186
-203
-214
-207
-217
-231
-219
-207
-212
-231
-212
-175
-186
-193
-156
-151
-168
-147
-128
-149
-151
-135
-156
-144
-49
-42
-158
-196
-128
-109
-133
-114
-123
-170
-163
-102
-74
-109
-123
-79
-72
-133
-147
-86
-67
-119
-133
-67
-21
-35
-28
-2
4
-2
-11
0
18
30
39
14
-2
35
46
42
58
46
42
119
312
593
763
411
-357
-681
-406
-168
-56
81
121
102
144
163
135
144
179
161
116
147
203
191
179
207
217
210
240
277
277
268
282
322
348
350
357
355
345
336
298
247
221
182
72
-63
-135
-123
-126
-172
-161
-156
-200
-184
-135
-123
-112
-105
-98
-72
-65
-65
-42
-65
-105
-51
2
-32
-51
-30
-25
-14
-11
-23
-28
-46
-56
-21
16
7
-18
-7
23
25
16
11
7
11
42
67
63
42
44
93
126
81
46
63
60
37
39
72
93
67
14
4
51
65
53
203
530
822
805
184
-611
-731
-357
-86
95
214
179
114
114
109
100
142
179
175
161
177
191
200
203
172
191
247
254
284
315
319
352
362
345
385
425
420
408
357
270
233
212
112
-32
-74
-51
-91
-121
-88
-102
-161
-170
-154
-161
-172
-137
-95
-95
-93
-81
-91
-86
-49
-35
-49
-63
-60
-30
-28
-58
-28
32
16
-28
-18
2
-11
-21
-21
-16
7
35
56
51
25
14
7
-23
-70
-67
2
30
11
25
63
60
11
-25
-23
-11
-14
-7
-7
-14
35
163
401
775
1116
896
-88
-833
-621
-196
-79
16
133
137
105
116
135
135
140
165
182
179
182
198
228
252
235
228
270
291
315
383
401
385
422
474
513
532
511
481
434
345
235
109
11
-21
-56
-121
-156
-154
-151
-151
-137
-135
-184
-233
-200
-163
-191
-214
-210
-193
-156
-126
-114
-123
-137
-119
-86
-79
-88
-98
-91
-81
-91
-107
-98
-98
-140
-154
-119
-88
-84
-91
-93
-93
-79
-51
-46
-65
-53
-7
16
16
23
21
14
4
7
23
35
25
14
37
93
238
572
1015
1216
616
-492
-838
-355
-49
-21
72
137
98
91
133
140
135
149
156
135
102
109
161
184
177
165
149
158
198
228
259
289
298
336
397
392
376
394
362
282
224
156
67
-9
-70
-114
-130
-133
-144
-158
-163
-142
-116
-100
-84
-81
-91
-81
-65
-74
-88
-102
-100
-79
-72
-100
-116
-107
-105
-105
-88
-84
-100
-102
-88
-95
-93
-51
-32
-49
-44
-44
-53
-39
-49
-77
-65
-32
-21
-25
-49
-60
-42
-16
7
7
-32
-53
-28
-23
-60
-63
-30
-30
-42
-28
-21
-2
25
49
210
565
969
1076
387
-649
-845
-348
-44
30
98
109
95
116
140
123
116
135
147
154
149
130
149
186
193
191
219
245
247
261
298
343
397
425
439
455
453
434
404
340
240
133
56
-21
-114
-179
-184
-177
-189
-186
-186
-203
-212
-205
-184
-165
-177
-196
-184
-161
-149
-156
-165
-156
-154
-156
-137
-137
-161
-161
-133
-107
-112
-121
-119
-105
-81
-81
-100
-102
-88
-72
-44
-44
-79
-102
-77
-44
-49
-60
-42
-30
-42
-28
7
2
-32
-35
-16
-2
23
53
51
39
46
44
23
7
-7
-11
7
16
14
30
49
65
175
471
892
1139
628
-469
-880
-371
-2
-9
21
70
37
28
65
88
98
93
93
116
144
151
142
144
170
182
191
226
256
275
310
357
383
371
371
387
413
441
408
340
294
221
105
16
-42
-105
-135
-126
-121
-119
-107
-107
-123
-135
-133
-130
-137
-133
-130
-149
-140
-109
-123
-140
-126
-116
-95
-63
-74
-107
-107
-91
-88
-77
-49
-46
-67
-53
-28
-37
-42
-32
-37
-30
-2
4
-4
-2
-2
-16
-4
9
-23
-58
-32
-4
-4
-9
-9
-25
-37
-23
-16
-18
-14
4
21
18
16
53
191
488
892
1102
567
-516
-941
-499
-133
-60
7
35
-4
0
39
46
56
100
102
60
56
102
144
137
123
165
205
217
247
268
263
287
352
390
411
439
441
413
378
338
277
175
72
2
-63
-126
-144
-119
-107
-128
-165
-196
-224
-245
-219
-170
-158
-175
-179
-179
-158
-135
-140
-114
-63
-77
-105
-102
-114
-98
-49
-51
-58
-37
-42
-58
-60
-67
-86
-79
-35
-7
-39
-72
-39
-2
-23
-42
-18
0
-2
4
14
7
-9
-2
18
32
30
37
77
95
74
81
95
63
35
35
60
93
91
74
102
212
457
815
1060
660
-350
-850
-478
-77
37
65
46
30
56
77
86
107
109
86
114
161
156
144
161
182
196
210
219
228
228
224
259
308
315
315
340
362
364
333
263
191
130
53
-37
-107
-149
-186
-203
-203
-203
-193
-170
-158
-163
-151
-123
-119
-112
-79
-70
-86
-67
-39
-56
-74
-67
-56
-42
-28
-39
-60
-42
-7
-14
-53
-95
-100
-58
-39
-42
-46
-67
-51
7
11
-30
-53
-60
-56
-53
-58
-49
-25
-30
-63
