13419
13357
13409
13317
13093
13112
13142
12722
12324
12243
12073
11866
11828
11809
11731
11623
11526
11516
11528
11434
11316
11231
11120
11035
11028
11018
10931
10811
10726
10672
10631
10584
10513
10419
10318
10251
10216
10164
10079
9982
9879
9801
9772
9723
9624
9539
9461
9392
9369
9355
9291
9154
9012
8949
8911
8831
8743
8684
8607
8526
8507
8536
8503
8399
8536
9086
9621
9215
7705
6723
7108
7582
7561
7559
7589
7497
7412
7396
7363
7285
7235
7224
7165
7120
7089
6921
6787
6801
6766
6711
6697
6643
6598
6584
6556
6570
6570
6494
6466
6471
6407
6346
6284
6157
6018
5881
5727
5597
5472
5373
5317
5239
5170
5163
5147
5071
5015
4998
4970
4927
4875
4828
4812
4786
4746
4705
4668
4663
4642
4533
4465
4465
4413
4356
4351
4328
4276
4233
4189
4151
4130
4104
4061
4014
3974
3962
3955
3894
3825
3790
3754
3714
3702
3724
3721
3615
3504
3504
3516
3476
3419
3367
3339
3332
3311
3285
3254
3221
3207
3230
3346
3688
4271
4620
3856
2374
1942
2596
2888
2780
2829
2869
2815
2813
2808
2770
2758
2756
2747
2730
2697
2671
2676
2671
2626
2579
2570
2567
2570
2579
2596
2605
2603
2605
2607
2617
2638
2621
2565
2525
2468
2348
2216
2100
1977
1895
1864
1826
1788
1774
1762
1755
1760
1765
1762
1746
1725
1722
1727
1736
1729
1668
1618
1637
1652
1637
1633
1623
1602
1597
1600
1597
1590
1557
1522
1524
1531
1522
1508
1486
1475
1477
1475
1465
1453
1437
1423
1423
1423
1401
1359
1335
1335
1331
1331
1326
1314
1295
1288
1286
1281
1283
1276
1253
1236
1222
1208
1203
1191
1177
1172
1180
1180
1161
1144
1142
1137
1130
1125
1116
1102
1097
1092
1083
1080
1073
1057
1047
1043
1052
1054
1005
955
953
946
927
922
906
882
875
877
870
875
903
993
1262
1772
2270
1942
582
-261
219
708
656
665
726
684
682
724
726
712
724
738
731
731
748
759
755
752
748
750
771
785
797
823
844
863
889
910
941
981
993
984
972
936
880
802
705
601
512
455
424
410
401
398
408
408
415
427
431
431
422
422
431
431
429
410
346
292
313
342
335
335
346
346
356
372
368
368
358
337
332
344
344
337
337
351
358
356
356
356
349
339
328
313
304
297
302
309
313
309
302
302
304
299
287
280
271
250
247
257
254
250
252
252
252
254
259
254
245
243
250
252
252
245
226
214
224
231
233
243
226
198
198
205
207
219
212
193
191
191
193
200
200
193
181
167
181
233
365
686
1196
1484
818
-469
-837
-214
122
87
162
202
151
172
224
228
224
233
231
231
247
261
271
273
271
280
299
325
346
354
363
389
420
455
493
512
519
526
528
514
460
370
269
172
77
0
-56
-96
-113
-106
-94
-89
-92
-101
-96
-92
-92
-84
-82
-84
-75
-66
-82
-115
-143
-155
-143
-113
-99
-99
-94
-94
-108
-110
-87
-77
-87
-77
-66
-63
-51
-44
-42
-37
-33
-25
-18
-23
-23
-11
-7
-9
-4
2
7
11
9
7
11
9
4
4
9
9
-16
-54
-70
-56
-51
-56
-47
-37
-37
-35
-28
-21
-18
-18
-14
-11
-18
-16
-16
-23
-16
11
37
30
-11
-37
-23
-18
-37
-56
-87
-134
-143
-125
-120
-118
-106
-94
-54
80
391
861
1154
552
-729
-1182
-580
-181
-186
-113
-54
-96
-99
-61
-54
-68
-75
-73
-80
-92
-92
-80
-66
-73
-75
-59
-44
-30
0
28
47
63
96
136
177
207
212
205
195
165
103
18
-84
-188
-259
-299
-325
-332
-332
-344
-354
-346
-313
-285
-283
-276
-257
-250
-236
-219
-238
-271
-261
-228
-217
-207
-198
-195
-184
-167
-162
-162
-162
-160
-153
-143
-134
-132
-143
-148
-136
-120
-113
-118
-120
-120
-127
-132
-127
-127
-146
-153
-134
-125
-127
-127
-143
-148
-127
-115
-120
-132
-139
-132
-125
-129
-129
-132
-139
-136
-134
-136
-129
-132
-151
-172
-188
-186
-177
-184
-198
-202
-195
-179
-174
-186
-184
-162
-148
-146
-153
-169
-193
-200
-188
-174
-191
-238
-250
-219
-188
-87
186
594
929
559
-670
-1392
-936
-455
-379
-254
-174
-224
-219
-184
-191
-177
-155
-162
-177
-177
-179
-179
-158
-143
-143
-125
-99
-80
-54
-33
-9
23
56
92
132
160
169
169
146
82
18
-44
-151
-271
-354
-403
-436
-455
-460
-450
-436
-422
-408
-394
-372
-354
-337
-323
-316
-306
-292
-278
-276
-271
-266
-287
-306
-290
-280
-278
-264
-259
-257
-254
-271
-278
-269
-261
-259
-252
-245
-238
-236
-233
-219
-210
-219
-217
-207
-205
-202
-200
-195
-193
-193
-191
-186
-181
-181
-177
-177
-179
-177
-179
-202
-224
-226
-231
-221
-207
-205
-205
-205
-198
-191
-191
-188
-181
-184
-181
-177
-184
-193
-184
-165
-141
-125
-136
-143
-139
-153
-167
-160
-158
-174
-207
-231
-224
-217
-214
-162
2
351
847
1036
217
-1028
-1201
-554
-261
-252
-177
-167
-205
-179
-148
-153
-146
-132
-134
-132
-120
-118
-127
-139
-141
-118
-87
-82
-92
-110
-101
-56
-14
14
51
89
106
115
134
127
89
23
-56
-143
-236
-323
-401
-472
-495
-483
-486
-469
-427
-422
-431
-403
-370
-349
-349
-361
-346
-325
-330
-337
-318
-292
-313
-309
-257
-269
-309
-287
-259
-266
-266
-278
-320
-337
-313
-302
-306
-323
-325
-311
-320
-313
-276
-285
-339
-351
-325
-325
-330
-335
-375
-420
-413
-372
-368
-401
-403
-394
-408
-372
-354
-403
-391
-358
-403
-405
-361
-368
-387
-401
-417
-417
-420
-410
-363
-320
-337
-358
-339
-358
-394
-375
-363
-396
-408
-372
-337
-335
-342
-311
-198
47
431
783
514
-601
-1418
-1076
-469
-328
-306
-195
-224
-309
-252
-231
-257
-198
-219
-285
-231
-228
-276
-236
-240
-271
-219
-193
-200
-200
-224
-186
-94
-84
-96
-4
28
-28
-11
11
-51
-113
-181
-302
-387
-453
-559
-611
-615
-649
-656
-594
-542
-564
-587
-564
-568
-580
-545
-500
-490
-488
-441
-424
-472
-483
-436
-443
-474
-429
-382
-403
-448
-429
-351
-368
-431
-434
-410
-391
-413
-431
-401
-422
-486
-464
-417
-410
-417
-448
-474
-493
-514
-488
-488
-519
-479
-446
-483
-469
-446
-493
-472
-410
-405
-356
-330
-422
-453
-335
-292
-403
-427
-363
-349
-346
-354
-358
-382
-389
-257
-54
257
724
726
-320
-1444
-1361
-759
-587
-443
-198
-191
-278
-266
-221
-198
-210
-210
-195
-207
-200
-210
-221
-148
-127
-198
-172
-80
-73
-89
-66
-44
-23
9
40
37
42
94
73
-51
-129
-155
-290
-479
-552
-566
-634
-674
-674
-715
-715
-656
-658
-674
-625
-630
-660
-615
-578
-568
-542
-568
-627
-587
-509
-507
-486
-474
-516
-507
-481
-486
-455
-431
-460
-488
-483
-453
-417
-410
-424
-438
-441
-424
-408
-422
-424
-396
-389
-391
-377
-382
-413
-413
-417
-415
-339
-332
-377
-365
-358
-401
-438
-420
-377
-387
-403
-408
-448
-462
-394
-325
-148
311
816
750
-320
-1458
-1359
-738
-590
-469
-252
-254
-290
-224
-202
-245
-261
-221
-207
-245
-236
-181
-198
-212
-136
-94
-136
-134
-75
-49
-47
23
84
68
99
193
212
155
134
125
54
-68
-202
-328
-434
-516
-585
-630
-653
-672
-658
-637
-634
-601
-587
-623
-585
-523
-561
-575
-507
-493
-509
-495
-488
-450
-434
-500
-516
-486
-493
-505
-493
-467
-453
-479
-479
-450
-462
-488
-509
-523
-497
-493
-509
-467
-431
-476
-514
-502
-493
-488
-505
-516
-457
-436
-481
-457
-403
-410
-438
-460
-448
-405
-410
-450
-453
-436
-434
-429
-443
-464
-372
-136
236
750
875
-141
-1441
-1458
-795
-590
-516
-365
-372
-405
-358
-337
-316
-276
-292
-309
-266
-243
-243
-214
-198
-212
-186
-127
-101
-96
-82
-61
-28
4
35
96
139
136
146
136
82
7
-106
-252
-354
-391
-446
-533
-585
-585
-587
-613
-582
-505
-497
-526
-505
-490
-502
-526
-526
-446
-389
-457
-497
-457
-429
-424
-434
-434
-382
-363
-396
-403
-405
-410
-389
-410
-436
-398
-379
-382
-368
-387
-413
-382
-323
-297
-323
-346
-342
-332
-339
-344
-337
-346
-354
-337
-325
-337
-337
-306
-292
-297
-271
-247
-299
-368
-365
-339
-342
-342
-330
-325
-323
-309
-287
-269
-261
-146
221
759
1062
408
-955
-1408
-783
-405
-379
-238
-167
-224
-210
-153
-141
-146
-136
-118
-103
-101
-92
-84
-89
-68
-35
-28
-11
25
44
59
99
158
198
217
238
264
285
313
299
224
143
61
-63
-172
-226
-287
-337
-332
-325
-325
-309
-290
-283
-273
-259
-252
-259
-290
-295
-259
-243
-243
-228
-224
-219
-205
-200
-200
-195
-174
-155
-172
-198
-191
-177
-179
-184
-177
-172
-172
-172
-177
-169
-155
-158
-158
-155
-179
-191
-179
-179
-186
-193
-200
-193
-191
-205
-202
-177
-158
-153
-148
-148
-181
-217
-219
-221
-243
-247
-240
-243
-228
-207
-195
-167
-59
264
866
1349
785
-715
-1349
-698
-252
-302
-226
-160
-250
-266
-195
-177
-184
-167
-160
-162
-153
-151
-143
-120
-101
-92
-80
-56
-30
-21
-2
44
87
113
155
207
231
207
169
158
134
33
-84
-134
-179
-271
-330
-330
-344
-391
-429
-422
-389
-372
-363
-344
-335
-311
-250
-212
-219
-200
-233
-311
-276
-198
-195
-198
-165
-122
-136
-212
-238
-193
-191
-179
-139
-143
-132
-120
-160
-151
-101
-127
-167
-148
-113
-84
-120
-205
-214
-158
-146
-186
-200
-177
-165
-136
-80
-103
-165
-177
-212
-266
-247
-195
-167
-146
-153
-198
-207
-193
-224
-240
-186
-151
-174
-226
-257
-243
-205
-143
18
354
844
1135
455
-941
-1404
-757
-344
-287
-134
-75
-146
-136
-96
-115
-103
-42
-37
-77
-96
-89
-51
-23
-28
-33
-30
-7
33
54
63
99
174
236
250
280
323
304
283
273
205
103
37
-21
-169
-339
-403
-389
-368
-394
-427
-375
-313
-313
-311
-280
-264
-264
-261
-252
-243
-236
-221
-198
-181
-181
-184
-169
-162
-160
-151
-143
-146
-143
-139
-136
-134
-136
-141
-134
-134
-153
-165
-172
-172
-165
-162
-162
-158
-148
-148
-172
-205
-210
-207
-219
-207
-172
-188
-240
-238
-202
-200
-202
-191
-184
-181
-177
-165
-146
-143
-165
-217
-261
-261
-252
-264
-264
-236
-214
-195
-177
-184
-169
11
422
977
1165
214
-1175
-1354
-641
-297
-245
-136
-113
-146
-110
-73
-70
-59
-47
-44
-35
-16
-2
7
16
23
42
68
89
113
134
153
177
214
259
299
328
351
368
370
346
292
202
92
-21
-118
-188
-240
-273
-287
-278
-264
-252
-252
-271
-266
-238
-212
-198
-207
-240
-245
-217
-207
-214
-207
-198
-191
-174
-160
-151
-146
-151
-146
-129
-129
-136
-148
-162
-162
-146
-136
-134
-136
-141
-136
-127
-136
-148
-160
-177
-177
-162
-158
-151
-155
-177
-174
-153
-143
-143
-148
-153
-143
-129
-122
-122
-125
-127
-120
-110
-110
-110
-113
-106
-70
-33
-35
-73
-99
-103
-103
-101
-87
-96
-132
-129
-115
-134
-122
-59
-23
73
405
887
1135
516
-776
-1264
-684
-250
-158
-37
-11
-63
-37
23
33
37
94
80
23
70
106
63
70
96
101
160
221
224
221
236
266
316
358
398
429
453
495
535
521
450
365
276
141
-2
-70
-103
-177
-221
-210
-202
-240
-295
-278
-191
-134
-167
-245
-250
-195
-188
-205
-177
-202
-269
-228
-143
-127
-165
-217
-205
-181
-186
-136
-141
-254
-271
-219
-247
-261
-236
-247
-207
-139
-169
-186
-151
-162
-174
-155
-165
-181
-160
-151
-188
-186
-120
-101
-120
-103
-115
-143
-118
-108
-132
-110
-89
-94
-68
-35
-47
-80
-75
-37
-44
-70
-49
-77
-136
-122
-108
-153
-155
-103
-87
-40
200
620
998
842
-245
-1300
-1130
-519
-346
-184
44
44
11
47
51
77
101
80
63
37
40
82
106
127
148
143
146
221
311
297
250
295
382
446
488
502
486
493
490
410
304
264
195
16
-120
-169
-212
-238
-231
-233
-240
-247
-228
-172
-132
-134
-151
-167
-172
-162
-153
-165
-191
-186
-151
-143
-155
-158
-160
-177
-198
-212
-221
-236
-250
-257
-266
-290
-309
-318
-330
-337
-339
-358
-379
-379
-377
-389
-403
-417
-424
-413
-384
-375
-434
-516
-523
-493
-495
-497
-497
-505
-497
-479
-467
-462
-457
-438
-358
-113
311
738
623
-493
-1590
-1420
-790
-611
-490
-332
-339
-356
-309
-313
-346
-335
-325
-330
-304
-280
-273
-257
-233
-210
-184
-158
-139
-110
-77
-37
7
47
84
129
165
184
191
172
125
54
-44
-162
-278
-382
-448
-483
-507
-519
-526
-528
-507
-483
-474
-457
-434
-420
-413
-396
-382
-365
-375
-408
-405
-368
-356
-354
-342
-332
-325
-325
-337
-335
-328
-330
-325
-316
-320
-318
-328
-356
-375
-379
-384
-387
-394
-391
-379
-377
-382
-372
-363
-339
-302
-287
-295
-295
-292
-295
-290
-292
-302
-297
-285
-278
-269
-257
-240
-207
-80
290
906
1305
594
-920
-1434
-767
-365
-370
-254
-195
-245
-212
-162
-169
-169
-153
-146
-136
-120
-108
-113
-139
-148
-115
-82
-68
-47
-21
4
42
82
125
160
188
193
184
184
172
110
25
-61
-162
-264
-344
-401
-434
-441
-436
-424
-410
-403
-394
-372
-351
-337
-328
-323
-313
-295
-280
-269
-261
-264
-261
-243
-233
-243
-254
-257
-250
-240
-231
-226
-228
-238
-238
-224
-217
-212
-219
-233
-231
-214
-210
-214
-245
-287
-280
-243
-212
-193
-207
-236
-228
-219
-228
-228
-228
-250
-271
-283
-290
-299
-332
-351
-299
-115
283
856
1071
162
-1198
-1387
-710
-417
-379
-250
-214
-240
-202
-174
-188
-179
-155
-146
-136
-125
-118
-113
-99
-89
-87
-75
-54
-30
-2
33
70
108
146
186
224
252
266
252
212
153
70
-28
-136
-233
-306
-349
-370
-372
-372
-370
-358
-344
-325
-306
-290
-290
-292
-283
-273
-292
-330
-346
-330
-309
-295
-278
-269
-266
-254
-245
-238
-231
-226
-228
-224
-217
-214
-210
-207
-202
-195
-193
-188
-184
-184
-181
-177
-188
-198
-193
-188
-186
-181
-177
-172
-169
-169
-167
-160
-160
-155
-151
-153
-151
-148
-155
-158
-153
-141
-120
-110
-129
-143
-141
-143
-153
-160
-167
-167
-172
-188
-198
-193
-202
-226
-212
-51
302
757
967
259
-1031
-1378
-748
-384
-332
-214
-177
-210
-174
-141
-148
-141
-125
-113
-103
-89
-80
-75
-63
-42
-30
-28
-16
4
30
66
101
132
158
158
158
188
217
205
169
120
56
-23
-115
-212
-292
-344
-365
-372
-370
-363
-358
-349
-328
-299
-283
-276
-280
-283
-264
-243
-231
-226
-228
-240
-254
-247
-226
-219
-226
-224
-210
-200
-193
-200
-243
-266
-243
-221
-217
-217
-221
-217
-198
-184
-179
-184
-186
-181
-179
-186
-186
-184
-198
-198
-186
-181
-177
-177
-186
-177
-160
-158
-167
-184
-193
-198
-205
-212
-210
-214
-217
-191
-146
-139
-162
-172
-167
-169
-172
-172
-179
-193
-195
-179
-167
-160
-151
-134
-37
236
674
1066
769
-476
-1326
-910
-363
-273
-165
-66
-106
-110
-59
-51
-56
-47
-44
-40
-21
-7
-4
0
4
7
23
33
18
23
63
101
134
174
212
252
285
299
304
292
245
169
73
-33
-134
-231
-304
-342
-356
-361
-356
-351
-346
-330
-313
-302
-297
-299
-297
-278
-261
-250
-236
-231
-233
-224
-231
-250
-243
-228
-224
-219
-226
-238
-238
-238
-238
-228
-228
-231
-226
-221
-221
-224
-231
-233
-243
-259
-271
-283
-285
-278
-299
-339
-335
-313
-311
-309
-306
-304
-292
-295
-297
-285
-283
-292
-285
-273
-264
-259
-257
-247
-226
-207
-162
7
377
861
1062
297
-1057
-1418
-769
-396
-318
-139
-82
-136
-113
-70
-77
-77
-77
-108
-110
-80
-66
-56
-40
-33
-23
4
35
59
80
103
136
184
224
259
292
313
316
297
257
200
110
-11
-127
-224
-304
-358
-387
-403
-398
-384
-368
-358
-379
-401
-377
-344
-330
-320
-313
-304
-283
-264
-252
-243
-250
-257
-245
-231
-238
-257
-269
-261
-250
-243
-236
-240
-259
-264
-254
-259
-261
-259
-276
-295
-285
-269
-266
-266
-269
-261
-250
-245
-250
-250
-243
-214
-181
-169
-177
-177
-188
-214
-219
-210
-212
-214
-207
-193
-186
-174
-155
-127
-7
342
918
1342
785
-667
-1321
-729
-271
-257
-153
-82
-136
-125
-70
-73
-92
-115
-122
-99
-84
-92
-94
-82
-66
-49
-23
0
16
37
63
99
141
179
212
233
240
240
247
240
193
122
28
-89
-200
-295
-384
-431
-431
-424
-415
-401
-394
-396
-387
-361
-337
-328
-316
-299
-287
-273
-261
-254
-250
-236
-226
-219
-205
-198
-198
-193
-186
-184
-179
-177
-179
-177
-174
-177
-188
-195
-193
-191
-198
-207
-228
-259
-269
-247
-245
-257
-254
-261
-273
-276
-276
-273
-254
-226
-200
-210
-247
-252
-240
-250
-252
-243
-243
-236
-224
-221
-210
-195
-179
-129
28
401
998
1340
556
-899
-1279
-606
-261
-261
-151
-108
-155
-127
-82
-87
-84
-68
-66
-56
-40
-28
-23
-14
-2
14
33
49
70
89
110
143
179
205
224
257
290
304
306
287
231
122
-9
-115
-202
-283
-330
-325
-306
-328
-372
-384
-389
-391
-358
-316
-280
-236
-224
-271
-285
-217
-219
-302
-261
-136
-141
-224
-212
-136
-120
-165
-179
-122
-68
-70
-103
-115
-103
-89
-77
-66
-42
-30
-42
-63
-96
-92
-16
4
-37
-21
9
-2
0
-4
-63
-84
-49
-54
-84
-84
-51
0
-11
-110
-153
-139
-143
-120
-61
-44
-80
-101
-146
-186
-141
-148
-236
-217
-155
-200
-259
-276
-311
-325
-191
139
606
962
599
-601
-1357
-951
-420
-323
-283
-228
-233
-214
-184
-184
-186
-167
-160
-160
-146
-125
-106
-96
-113
-108
-66
-49
-40
2
42
56
77
113
132
153
193
217
214
151
61
11
-63
-191
-283
-335
-394
-455
-469
-434
-422
-436
-424
-408
-408
-405
-398
-415
-427
-401
-375
-387
-391
-361
-337
-316
-290
-299
-316
-295
-273
-276
-269
-278
-311
-316
-290
-271
-264
-264
-261
-257
-259
-259
-254
-254
-254
-243
-236
-233
-228
-228
-238
-243
-238
-240
-261
-273
-271
-292
-295
-240
-207
-219
-226
-233
-240
-228
-210
-212
-221
-219
-207
-200
-200
-198
-181
-167
-132
47
443
988
1220
346
-1057
-1312
-646
-358
-304
-143
-108
-155
-129
-92
-87
-84
-73
-82
-118
-122
-75
-49
-51
-35
-11
2
28
63
89
106
141
198
252
295
332
346
354
351
318
247
136
16
-99
-207
-292
-346
-377
-389
-382
-365
-356
-351
-354
-372
-363
-330
-320
-309
-292
-285
-266
-236
-219
-219
-212
-202
-198
-181
-172
-200
-224
-212
-200
-200
-200
-219
-252
-252
-224
-214
-214
-210
-212
-207
-195
-191
-193
-217
-269
-297
-269
-245
-257
-266
-271
-273
-250
-207
-184
-200
-221
-205
-184
-195
-202
-198
-193
-179
-191
-224
-217
-198
-191
-134
47
427
960
1231
474
-915
-1298
-667
-337
-297
-127
-42
-70
-56
-40
-47
-37
-11
4
-7
-30
-40
-30
-9
14
18
21
40
66
94
134
186
224
254
304
349
375
396
401
358
276
191
87
-70
-200
-271
-332
-365
-365
-370
-398
-413
-379
-349
-328
-311
-328
-332
-313
-299
-278
-271
-264
-247
-243
-228
-212
-214
-210
-198
-186
-179
-174
-181
-212
-207
-179
-186
-200
-205
-210
-200
-188
-200
-210
-193
-205
-250
-257
-276
-337
-342
-302
-290
-276
-252
-254
-264
-257
-247
-259
-259
-254
-271
-254
-221
-226
-250
-240
-193
-120
103
554
1033
969
-136
-1276
-1135
-512
-346
-299
-233
-245
-243
-214
-212
-207
-167
-139
-139
-125
-101
-92
-87
-66
-30
7
49
61
25
68
158
169
195
273
318
337
354
361
328
264
188
87
-16
-155
-325
-365
-318
-365
-417
-342
-269
-335
-377
-271
-205
-233
-252
-257
-240
-195
-186
-193
-191
-198
-191
-151
-136
-165
-177
-165
-153
-134
-136
-132
-122
-148
-167
-158
-143
-132
-146
-148
-134
-136
-141
-160
-188
-181
-160
-153
-160
-167
-174
-184
-165
-120
-118
-162
-165
-134
-136
-151
-151
-177
-217
-205
-207
-243
-250
-236
-205
-99
172
573
887
578
-556
-1352
-1012
-497
-344
-172
-42
-73
-84
-37
-35
-59
-44
-33
-25
-2
0
-9
4
23
44
70
73
59
80
115
134
179
221
219
245
316
344
316
273
214
132
51
-23
-122
-236
-295
-304
-318
-328
-344
-375
-365
-318
-280
-266
-278
-299
-283
-257
-271
-273
-250
-243
-233
-210
-193
-193
-202
-202
-195
-174
-146
-148
-162
-148
-134
-139
-153
-169
-158
-110
-113
-179
-207
-134
-96
-172
-205
-160
-136
-143
-151
-151
-158
-193
-228
-160
-59
-106
-210
-198
-134
-129
-148
-108
44
372
889
1215
528
-929
-1453
-830
-455
-391
-151
-56
-141
-108
-59
-129
-205
-236
-217
-169
-146
-158
-155
-125
-108
-87
-63
-40
0
35
63
122
179
210
224
269
330
302
252
233
162
30
-118
-247
-337
-405
-448
-460
-443
-434
-500
-549
-476
-413
-422
-413
-384
-370
-354
-328
-313
-306
-287
-271
-250
-233
-231
-224
-217
-205
-191
-188
-191
-193
-191
-179
-172
-169
-169
-174
-167
-162
-169
-179
-181
-188
-212
-210
-167
-139
-146
-186
-214
-186
-167
-179
-186
-188
-181
-165
-151
-143
-146
-141
-115
-61
110
448
837
1010
403
-861
-1352
-771
-351
-254
-54
28
-37
-21
4
-21
-21
-11
-9
-7
-7
-2
14
35
54
66
80
99
127
158
191
231
259
290
337
372
389
384
349
297
224
122
11
-106
-221
-316
-375
-387
-387
-391
-387
-365
-337
-318
-320
-368
-417
-384
-335
-325
-309
-292
-285
-269
-250
-231
-221
-219
-212
-200
-184
-177
-184
-191
-191
-179
-167
-162
-158
-165
-165
-148
-141
-134
-134
-143
-143
-134
-108
-77
-75
-87
-96
-84
-75
-92
-99
-101
-106
-99
-89
-84
-84
-87
-77
-30
169
538
925
1010
195
-1071
-1279
-618
-297
-207
-40
-16
-66
-25
2
-16
-4
9
0
-25
-56
-61
-47
-37
-16
0
16
42
70
103
129
148
184
231
271
299
316
313
280
233
162
61
-44
-158
-250
-309
-349
-365
-368
-365
-349
-330
-318
-299
-285
-273
-257
-243
-231
-221
-210
-205
-207
-207
-202
-191
-181
-177
-162
-155
-169
-193
-202
-191
-179
-177
-169
-167
-165
-160
-151
-143
-141
-143
-143
-143
-134
-122
-106
-84
-87
-101
-89
-84
-113
-165
-200
-193
-177
-169
-165
-162
-153
-136
-96
16
287
684
1007
750
-398
-1302
-967
-375
-217
-77
42
2
-16
14
9
4
25
33
21
25
28
23
35
51
51
51
66
84
99
125
143
148
188
243
271
290
271
217
177
134
56
-51
-167
-271
-339
-375
-398
-413
-417
-410
-384
-361
-358
-361
-358
-337
-311
-299
-280
-271
-271
-259
-243
-231
-221
-238
-271
-271
-243
-228
-228
-224
-231
-233
-217
-212
-210
-207
-217
-210
-198
-193
-188
-193
-210
-219
-214
-202
-200
-205
-210
-207
-193
-186
-184
-191
-224
-236
-221
-200
-172
-165
-181
-181
-160
-151
-167
-179
-179
-174
-162
-151
-148
-148
-143
-118
-77
44
344
729
972
547
-656
-1331
-842
-339
-231
-82
21
-25
-37
-7
-18
-25
-9
-14
-42
-59
-37
-11
0
16
35
51
77
106
146
184
212
240
271
306
346
370
377
365
323
257
181
84
-33
-165
-269
-313
-328
-344
-349
-332
-313
-299
-276
-261
-247
-226
-214
-200
-188
-184
-167
-151
-155
-162
-167
-158
-143
-136
-129
-125
-122
-125
-115
-106
-115
-110
-101
-103
-96
-84
-84
-94
-96
-89
-80
-70
-68
-82
-110
-134
-125
-108
-110
-106
-103
-125
-127
-115
-106
-101
-108
-113
-110
-115
-108
-106
-122
-143
-167
-188
-184
-169
-167
-165
-151
-132
-94
44
351
769
1026
523
-769
-1439
-899
-396
-323
-167
-61
-115
-108
-59
-59
-61
-47
-49
-49
-23
-4
-2
2
14
30
61
87
108
129
148
186
231
269
306
332
346
349
337
304
236
132
7
-118
-214
-297
-370
-438
-483
-467
-441
-438
-422
-410
-394
-365
-361
-368
-361
-344
-332
-313
-287
-266
-259
-252
-238
-217
-200
-195
-188
-186
-184
-174
-179
-181
-174
-177
-169
-153
-139
-132
-132
-132
-125
-113
-101
-96
-96
-99
-94
-80
-73
-73
-73
-84
-89
-87
-82
-80
-94
-103
-92
-66
-35
-28
-59
-92
-89
-84
-108
-122
-125
-136
-129
-113
-110
-127
-158
-153
-89
66
372
745
962
469
-767
-1347
-778
-292
-210
-73
9
-30
-16
28
14
4
18
18
28
40
44
56
75
96
115
127
148
174
202
240
273
304
339
375
405
427
431
410
365
306
224
127
2
-143
-231
-269
-302
-318
-325
-325
-306
-290
-271
-252
-243
-226
-210
-198
-184
-169
-162
-158
-143
-134
-132
-127
-143
-151
-134
-129
-132
-139
-172
-179
-158
-153
-153
-146
-143
-153
-174
-181
-172
-162
-162
-155
-141
-141
-139
-134
-143
-148
-146
-158
-165
-165
-158
-153
-148
-146
-146
-143
-136
-129
-122
-122
-122
-118
-113
-106
-103
-115
-125
-122
-92
-59
-68
-84
-82
-75
-77
-84
-82
-84
-87
-80
-73
-63
-54
-51
-25
70
306
660
991
818
-266
-1213
-932
-313
-155
-70
4
-44
-61
-18
-11
-16
-2
11
23
44
56
59
66
82
108
129
148
169
186
219
261
295
332
358
379
408
420
415
384
328
257
174
84
-21
-134
-224
-271
-280
-285
-285
-276
-273
-261
-236
-219
-202
-193
-193
-181
-165
-151
-139
-136
-141
-141
-158
-184
-179
-165
-174
-174
-153
-148
-148
-148
-160
-177
-188
-186
-188
-202
-205
-195
-188
-181
-184
-219
-243
-221
-198
-198
-210
-240
-261
-238
-212
-207
-200
-200
-198
-181
-162
-153
-155
-158
-148
-141
-136
-141
-153
-153
-155
-148
-127
-103
-80
-80
-99
-94
-82
-84
-99
-110
-108
-103
-96
-94
-96
-92
-82
-70
9
257
641
965
755
-328
-1257
-988
-391
-240
-141
-18
-40
-59
-21
-9
-18
-9
9
14
14
21
28
40
49
42
28
37
73
101
125
155
188
228
266
304
342
349
332
309
257
184
89
-21
-125
-219
-285
-320
-349
-356
-342
-332
-332
-332
-311
-292
-273
-254
-250
-233
-217
-210
-193
-193
-205
-212
-233
-243
-219
-205
-214
-207
-200
-214
-221
-200
-193
-198
-191
-184
-169
-160
-160
-153
-146
-136
-125
-120
-118
-118
-115
-106
-94
-87
-89
-108
-136
-141
-115
-106
-115
-110
-108
-103
-87
-70
-56
-56
-80
-75
-51
-54
-66
-73
-75
-70
-56
-47
-49
-49
-40
-4
108
377
769
1083
830
-297
-1236
-936
-339
-212
-75
96
77
51
94
99
73
82
106
108
99
103
115
127
139
151
143
122
148
198
226
257
292
325
368
413
448
460
443
410
358
283
181
42
-118
-240
-297
-337
-377
-384
-391
-398
-379
-354
-337
-325
-320
-304
-283
-266
-252
-252
-261
-259
-250
-250
-254
-252
-254
-252
-238
-233
-233
-236
-247
-257
-273
-276
-259
-261
-278
-271
-254
-245
-245
-247
-245
-236
-224
-219
-219
-217
-219
-212
-200
-195
-193
-198
-195
-184
-172
-165
-162
-169
-169
-165
-146
-115
-92
-92
-106
-108
-103
-113
-120
-120
-120
-108
-94
-84
-82
-80
-63
-30
75
335
684
981
781
-311
-1250
-965
-337
-162
-56
68
44
23
66
73
66
63
51
54
59
63
77
94
113
127
139
165
188
217
250
280
313
351
391
427
455
469
457
434
387
306
217
108
-7
-101
-174
-219
-243
-257
-254
-250
-257
-247
-228
-219
-205
-188
-177
-179
-179
-172
-160
-148
-143
-136
-127
-125
-110
-103
-113
-132
-169
-202
-202
-193
-193
-193
-191
-186
-179
-174
-195
-228
-231
-217
-202
-193
-191
-202
-231
-228
-198
-191
-188
-181
-177
-165
-151
-143
-141
-139
-134
-122
-113
-106
-108
-110
-110
-106
-96
-87
-68
-49
-51
-68
-80
-82
-87
-103
-103
-96
-94
-89
-92
-94
-84
-73
-47
35
261
620
953
849
-134
-1163
-1043
-410
-179
-80
40
21
-40
-37
-18
-14
0
2
-23
-49
-42
-18
-4
2
11
23
49
80
106
139
162
191
240
285
323
354
363
361
346
311
250
160
44
-66
-153
-212
-259
-287
-306
-309
-304
-297
-276
-261
-259
-240
-214
-198
-184
-177
-174
-167
-162
-148
-136
-136
-134
-125
-108
-99
-96
-99
-113
-120
-115
-125
-136
-146
-146
-141
-136
-134
-148
-167
-184
-198
-188
-169
-188
-219
-217
-193
-177
-169
-160
-158
-155
-141
-127
-115
-110
-113
-106
-96
-84
-75
-80
-80
-70
-61
-54
-51
-51
-54
-68
-75
-68
-59
-49
-30
-4
-7
-21
-14
-11
-21
-25
-25
-23
-25
-25
-18
-18
-9
9
33
132
401
776
1076
816
-325
-1229
-889
-295
-160
-47
59
16
-7
16
21
28
42
54
61
66
77
82
63
56
82
106
125
160
188
210
247
287
330
372
408
441
460
453
427
377
297
186
63
-47
-148
-226
-278
-313
-323
-323
-318
-309
-295
-271
-254
-247
-238
-231
-236
-228
-226
-228
-219
-210
-200
-188
-174
-167
-169
-167
-162
-148
-143
-165
-177
-174
-165
-153
-165
-193
-202
-186
-167
-158
-153
-148
-146
-141
-132
-120
-113
-127
-153
-167
-153
-136
-134
-129
-127
-125
-108
-96
-94
-94
-99
-103
-106
-96
-84
-89
-94
-87
-82
-68
-42
-30
-28
-30
-35
-30
-25
-40
-54
-47
-44
-40
-28
-33
-42
-25
-2
59
257
637
1062
1132
276
-986
-1189
-533
-233
-151
49
92
11
14
51
56
63
80
75
70
87
99
113
136
141
141
162
191
221
252
278
304
342
391
438
481
509
502
464
415
344
233
68
-94
-202
-280
-339
-372
-396
-410
-408
-391
-387
-410
-436
-429
-396
-375
-361
-342
-330
-320
-297
-276
-257
-247
-245
-233
-221
-221
-228
-224
-212
-214
-212
-200
-193
-200
-221
-233
-214
-200
-200
-198
-195
-188
-181
-169
-160
-167
-167
-160
-153
-146
-146
-146
-146
-146
-136
-129
-129
-139
-158
-155
-136
-115
-99
-101
-115
-120
-113
-120
-162
-198
-193
-184
-179
-167
-169
-169
-158
-134
-66
148
526
932
1000
136
-1106
-1243
-566
-271
-198
-49
-37
-77
-37
-4
-7
4
23
25
33
40
25
23
44
63
75
101
134
160
191
226
259
306
358
398
436
462
469
462
424
356
259
136
0
-125
-219
-283
-320
-335
-335
-318
-304
-295
-278
-266
-261
-254
-252
-257
-283
-309
-290
-261
-250
-238
-228
-217
-202
-186
-172
-172
-167
-160
-153
-155
-167
-172
-165
-160
-148
-139
-136
-134
-134
-125
-115
-127
-146
-151
-139
-129
-120
-106
-101
-103
-101
-92
-77
-70
-68
-70
-73
-63
-49
-44
-42
-49
-61
-56
-44
-35
-33
-42
-44
-42
-35
-28
-35
-66
-94
-77
-59
-61
-56
-59
-61
-49
-40
-37
-37
-51
-51
-42
-28
-7
-7
-51
-82
-73
-68
-84
-94
-101
-103
-89
-77
-73
-73
-80
-70
-47
-2
146
453
851
1054
446
-795
-1224
-625
-210
-153
-37
11
-33
-16
9
4
14
30
30
16
16
33
47
59
68
73
87
110
134
155
169
191
219
259
302
335
354
358
351
330
276
191
84
-47
-174
-271
-332
-372
-403
-415
-417
-420
-401
-391
-408
-403
-370
-344
-330
-311
-295
-283
-261
-240
-231
-243
-254
-236
-212
-202
-184
-169
-162
-151
-143
-134
-125
-125
-122
-115
-110
-106
-103
-108
-108
-96
-87
-82
-73
-75
-75
-61
-59
-54
-42
-42
-42
-40
-35
-28
-23
-23
-23
-18
-9
-9
-9
-9
-7
-2
-2
0
4
2
0
-14
-25
-16
-14
-18
-7
0
-4
-16
-44
-73
-63
-40
-47
-49
-30
-44
-73
-66
-54
-54
-56
-51
-35
-28
-30
-35
-37
-28
-18
-16
-35
-80
-110
-99
-61
-33
-25
-40
-61
-49
-14
-14
-40
-56
-56
-47
-49
-59
-56
-51
-51
-42
-11
70
297
698
1130
1118
118
-1083
-1078
-417
-214
-169
-18
-4
-54
-23
7
7
23
42
35
33
56
77
87
96
106
122
136
143
155
184
193
184
228
299
346
391
420
427
429
410
356
264
136
11
-94
-188
-261
-313
-337
-339
-328
-313
-295
-278
-273
-261
-233
-217
-205
-193
-191
-174
-153
-139
-125
-118
-118
-110
-94
-77
-73
-77
-89
-99
-96
-89
-84
-92
-101
-92
-82
-82
-77
-80
-82
-75
-68
-63
-63
-68
-68
-63
-70
-96
-103
-96
-99
-94
-77
-73
-73
-77
-77
-70
-68
-80
-113
-143
-139
-120
-108
-101
-101
-101
-101
-106
-101
-96
-96
-101
-99
-89
-80
-77
-77
-82
-94
-99
-99
-106
-115
-115
-113
-110
-103
-101
-110
-122
-132
-122
-113
-108
-92
-68
-63
-77
-73
-56
-68
-89
-92
-87
-77
-73
-73
-66
-63
-68
-75
-59
73
375
790
1123
785
-486
-1331
-859
-285
-231
-136
-18
-59
-61
-7
-2
-18
-35
-33
-14
0
11
28
42
59
80
101
122
148
177
210
250
285
323
368
403
443
476
479
464
431
365
271
162
44
-77
-179
-238
-273
-295
-302
-302
-290
-276
-252
-236
-228
-217
-210
-198
-177
-165
-162
-172
-184
-169
-146
-139
-132
-127
-122
-113
-106
-110
-127
-127
-118
-115
-106
-103
-106
-108
-108
-96
-89
-89
-103
-141
-158
-136
-125
-122
-122
-122
-115
-106
-94
-89
-94
-94
-87
-77
-70
-68
-68
-80
-89
-89
-94
-94
-96
-101
-92
-82
-77
-77
-87
-89
-92
-96
-99
-113
-127
-129
-118
-113
-110
-108
-120
-146
-153
-143
-132
-132
-134
-127
-118
-125
-129
-132
-132
-125
-110
-99
-96
-96
-96
-92
-75
-63
-56
-51
-59
-49
-33
-30
-35
-49
-66
-66
-56
-47
-49
-82
-108
-94
-56
-11
143
443
797
1010
531
-653
-1194
-646
-181
-113
-9
59
18
23
61
56
61
75
54
18
16
42
61
70
84
94
101
110
113
136
174
200
233
271
299
335
368
387
389
375
344
290
212
108
-7
-110
-195
-259
-304
-328
-335
-330
-318
-304
-297
-283
-266
-254
-243
-236
-231
-217
-212
-202
-188
-193
-198
-193
-184
-174
-174
-198
-226
-219
-200
-200
-193
-193
-200
-198
-198
-191
-181
-186
-191
-186
-184
-179
-177
-177
-167
-162
-184
-207
-198
-184
-186
-191
-198
-188
-172
-167
-155
-141
-139
-129
-122
-122
-118
-115
-122
-122
-118
-108
-99
-92
-94
-92
-87
-89
-92
-94
-110
-118
-120
-118
-110
-103
-101
-110
-118
-110
-99
-92
-92
-94
-87
-80
-73
-68
-73
-96
-127
-127
-92
-70
-68
-61
-61
-56
-51
-51
-59
-68
-66
-59
-54
-54
-75
-99
-87
-61
-2
202
580
984
1069
278
-936
-1144
-495
-186
-127
35
80
33
59
82
80
99
122
118
115
122
129
146
167
177
181
198
226
254
278
299
316
339
387
434
479
516
528
521
500
464
401
295
141
-7
-108
-186
-252
-295
-320
-328
-306
-287
-283
-295
-313
-299
-261
-250
-245
-240
-250
-243
-228
-217
-198
-193
-193
-172
-148
-139
-132
-122
-125
-125
-115
-103
-99
-103
-103
-94
-92
-80
-73
-87
-92
-82
-70
-61
-59
-68
-70
-63
-56
-61
-75
-89
-87
-75
-66
-61
-59
-66
-63
-59
-54
-54
-68
-75
-75
-75
-68
-59
-54
-54
-47
-30
-37
-59
-73
-99
-125
-129
-127
-139
-174
-210
-221
-207
-177
-134
2
335
790
1113
712
-582
-1378
-889
-349
-278
-125
16
-37
-44
16
16
14
35
42
44
51
63
82
92
101
118
134
148
158
174
207
245
280
320
370
413
448
488
502
486
453
391
302
191
54
-70
-169
-243
-283
-304
-311
-309
-299
-285
-271
-252
-243
-228
-212
-212
-219
-236
-245
-238
-254
-273
-243
-214
-212
-200
-186
-177
-162
-151
-148
-146
-139
-136
-127
-120
-122
-120
-118
-113
-101
-96
-96
-96
-96
-89
-80
-87
-110
-146
-165
-155
-136
-129
-129
-127
-122
-113
-99
-94
-99
-99
-94
-82
-75
-73
-75
-77
-75
-66
-61
-59
-63
-68
-61
-56
-51
-54
-66
-75
-84
-89
-92
-113
-139
-136
-122
-110
-108
-110
-136
-165
-141
-110
-120
-127
-127
-132
-143
-155
-162
-165
-165
-165
-158
-143
-132
-108
-14
240
634
1000
856
-261
-1345
-1130
-464
-304
-240
-120
-146
-165
-106
-84
-92
-80
-73
-68
-47
-30
-21
-7
2
21
51
77
106
127
148
186
231
273
320
361
387
401
424
434
405
344
254
165
77
-28
-132
-212
-266
-290
-299
-297
-287
-283
-269
-245
-221
-207
-221
-243
-233
-202
-184
-172
-160
-153
-146
-134
-136
-136
-127
-120
-115
-101
-89
-82
-82
-82
-75
-68
-61
-56
-61
-61
-59
-51
-42
-40
-40
-42
-37
-30
-28
-23
-25
-25
-21
-18
-11
-9
-23
-33
-30
-23
-18
-21
-23
-40
-66
-61
-47
-47
-47
-42
-37
-35
-25
-25
-28
-21
-16
-16
-11
-18
-21
-14
-14
-11
-25
-61
-75
-63
-73
-84
-87
-99
-96
-70
-70
-80
-68
-68
-75
-75
-75
-70
-63
-61
-49
-40
-30
-7
80
318
684
1028
936
-47
-1099
-993
-346
-125
-61
51
33
-14
21
33
9
14
25
25
35
35
16
11
33
51
68
96
118
139
165
198
240
280
316
351
384
422
446
443
417
363
292
212
101
-23
-132
-212
-261
-290
-297
-297
-318
-346
-339
-299
-271
-264
-252
-240
-224
-200
-184
-174
-169
-162
-143
-129
-118
-108
-110
-108
-96
-82
-73
-75
-84
-96
-92
-75
-73
-77
-87
-87
-73
-66
-75
-94
-113
-110
-96
-92
-82
-75
-77
-80
-73
-56
-47
-49
-56
-59
-47
-35
-33
-30
-37
-40
-47
-56
-44
-42
-61
-51
-33
-28
-25
-28
-33
-33
-23
-18
-16
-18
-23
-16
2
14
14
-23
-56
-44
-35
-61
-82
-92
-89
-80
-75
-63
-68
-75
-56
40
287
691
1099
1033
-25
-1196
-1118
-464
-292
-228
-44
-30
-77
-28
-33
-84
-63
-23
-21
-18
2
16
25
44
68
87
110
129
143
160
195
243
283
325
377
420
462
493
490
462
410
332
231
110
-16
-132
-217
-266
-299
-318
-320
-311
-297
-280
-266
-283
-302
-278
-250
-240
-238
-240
-228
-205
-195
-186
-169
-158
-151
-143
-129
-120
-113
-122
-143
-136
-122
-125
-125
-122
-115
-106
-110
-106
-99
-96
-89
-82
-82
-80
-75
-77
-80
-87
-89
-87
-82
-80
-73
-66
-61
-56
-51
-49
-35
-23
-11
-9
-21
-21
-25
-35
-42
-44
-44
-40
-33
-25
-23
-14
16
120
405
833
1191
944
-290
-1323
-1000
-363
-236
-113
44
14
-4
54
59
35
56
56
33
33
35
30
42
66
84
101
118
132
155
193
226
250
276
304
332
358
389
413
398
361
309
228
120
-7
-134
-240
-309
-342
-365
-375
-375
-368
-342
-316
-299
-283
-278
-264
-243
-228
-210
-200
-198
-188
-169
-151
-151
-162
-162
-148
-132
-125
-118
-115
-127
-129
-113
-106
-106
-136
-207
-226
-191
-191
-219
-221
-207
-200
-181
-165
-160
-158
-160
-151
-132
-125
-120
-120
-132
-141
-134
-120
-113
-120
-122
-113
-103
-96
-92
-94
-96
-94
-82
-77
-77
-80
-87
-80
-73
-68
-70
-77
-80
-73
-68
-66
-70
-75
-77
-75
-77
-92
-103
-103
-103
-101
-92
-84
-80
-73
-68
-68
-75
-73
-80
-99
-108
-108
-108
-125
-143
-136
-127
-120
-96
-51
99
422
835
1036
422
-809
-1227
-627
-214
-160
-47
7
-37
-11
28
18
16
25
30
40
49
61
75
87
96
113
129
136
151
169
184
212
250
283
323
358
389
415
415
384
342
287
219
125
18
-87
-181
-247
-285
-302
-309
-306
-292
-280
-259
-238
-226
-210
-191
-198
-205
-193
-177
-167
-158
-146
-132
-122
-113
-106
-99
-101
-101
-87
-84
-99
-125
-136
-118
-103
-108
-103
-101
-94
-82
-80
-77
-75
-73
-61
-54
-49
-49
-49
-47
-40
-30
-25
-30
-30
-30
-23
-23
-44
-63
-82
-106
-94
-75
-73
-75
-73
-66
-56
-47
-42
-47
-49
-42
-33
-25
-25
-30
-37
-51
-66
-66
-54
-61
-73
-59
-44
-42
-40
-44
-56
-61
-47
-23
-16
-49
-89
-89
-70
-75
-92
-101
-106
-96
-84
-84
-80
-82
-82
-59
-7
151
467
854
1069
542
-689
-1246
-705
-245
-179
-68
-16
-75
-68
-44
-63
-61
-54
-56
-56
-56
-44
-25
-14
0
7
14
37
75
108
136
169
202
245
280
299
335
370
375
370
358
311
238
134
11
-94
-177
-240
-287
-318
-330
-316
-292
-273
-261
-247
-233
-219
-198
-186
-198
-221
-207
-179
-172
-155
-139
-136
-120
-103
-99
-89
-80
-77
-77
-82
-82
-77
-73
-73
-70
-63
-59
-51
-54
-51
-42
-40
-37
-28
-30
-28
-21
-21
-16
-9
-9
-11
-11
-16
-37
-54
-42
-35
-33
-23
-18
-28
-37
-28
-18
-16
-9
-9
-9
-4
-2
0
7
4
4
9
14
14
9
0
7
30
33
14
2
-33
-61
-59
-68
-80
-96
-136
-153
-155
-169
-158
-129
-75
122
523
981
1144
394
-944
-1300
-630
-278
-240
-56
14
-40
-11
35
25
18
35
49
54
51
37
28
49
73
84
96
113
132
158
202
247
276
311
356
405
450
476
488
469
422
356
261
136
0
-132
-228
-290
-330
-356
-372
-372
-358
-339
-320
-306
-318
-342
-342
-323
-318
-306
-285
-276
-259
-236
-224
-212
-205
-195
-172
-155
-141
-134
-136
-132
-120
-106
-99
-101
-103
-103
-92
-77
-73
-68
-73
-89
-96
-82
-73
-87
-103
-94
-77
-68
-59
-54
-59
-59
-44
-33
-28
-23
-28
-28
-11
-4
0
2
-9
-7
4
9
14
9
4
11
35
56
66
56
35
18
16
9
0
-9
-18
-11
4
11
16
9
11
44
151
417
835
1220
1050
-106
-1182
-960
-320
-177
-110
25
4
-33
11
9
-28
-30
-28
-30
-33
-30
-14
2
23
47
61
77
101
129
167
202
238
273
313
358
398
434
434
398
375
346
283
193
80
-44
-151
-226
-273
-306
-328
-339
-346
-325
-297
-283
-271
-254
-238
-224
-210
-195
-191
-179
-167
-158
-143
-136
-134
-122
-115
-108
-106
-134
-162
-153
-136
-136
-134
-132
-134
-141
-165
-193
-193
-186
-184
-174
-169
-162
-153
-155
-148
-141
-139
-134
-132
-132
-127
-122
-120
-120
-120
-120
-115
-110
-113
-113
-110
-110
-103
-96
-96
-92
-92
-103
-110
-108
-99
-94
-89
-82
-70
-61
-59
-54
-49
-44
-35
-28
-30
-30
-28
-23
-14
-9
-7
-7
-9
-2
16
33
35
11
-23
-28
-16
-44
-92
-94
-84
-80
-61
-51
-51
-47
-42
-28
9
151
448
833
1118
743
-462
-1182
-710
-179
-103
-25
51
4
-11
25
28
30
51
59
61
61
61
68
87
103
108
118
143
172
200
231
252
280
323
368
408
441
462
467
464
448
401
335
243
129
25
-66
-139
-193
-233
-247
-240
-243
-259
-273
-259
-233
-217
-195
-181
-212
-273
-278
-228
-212
-207
-188
-184
-172
-148
-134
-122
-120
-122
-108
-94
-82
-77
-77
-82
-77
-66
-59
-54
-54
-68
-73
-56
-49
-47
-47
-49
-42
-30
-23
-23
-30
-28
-21
-14
-9
-11
-18
-21
-16
-7
-4
-7
-9
-9
-4
-2
2
4
-2
-2
-7
-18
-21
-30
-51
-56
-40
-30
-30
-30
-25
-28
-25
-16
-25
-61
-80
-56
-33
-23
-11
-11
-16
-16
-21
-30
-44
-61
-61
-54
-47
-40
-42
-49
-44
0
148
453
840
1092
646
-587
-1269
-771
-271
-188
-51
40
-7
0
44
42
40
54
66
73
80
84
94
108
122
136
151
167
188
198
217
257
283
292
320
372
420
441
450
460
441
382
309
214
103
-11
-118
-198
-257
-320
-365
-349
-323
-316
-302
-285
-271
-245
-224
-219
-212
-200
-188
-174
-169
-158
-143
-132
-118
-106
-99
-99
-94
-92
-87
-70
-61
-68
-73
-70
-66
-66
-63
-59
-61
-68
-66
-54
-49
-56
-59
-49
-54
-73
-80
-87
-120
-143
-139
-143
-146
-141
-136
-122
-106
-101
-89
-80
-84
-77
-59
-37
-16
-23
-40
-35
-40
-49
-56
-63
-59
-37
-23
-23
-30
-37
-11
127
446
887
1205
795
-540
-1390
-901
-342
-273
-113
37
-16
-33
9
2
-9
4
23
35
40
42
47
63
77
96
125
141
148
169
198
226
269
311
344
394
450
476
467
457
424
361
280
174
44
-96
-217
-280
-311
-335
-346
-351
-349
-325
-295
-269
-254
-247
-238
-219
-200
-193
-195
-195
-184
-165
-148
-134
-129
-127
-118
-108
-101
-99
-120
-151
-148
-132
-125
-118
-115
-118
-120
-110
-101
-94
-92
-96
-92
-80
-70
-63
-68
-75
-87
-89
-77
-70
-75
-70
-63
-59
-59
-80
-99
-94
-77
-73
-68
-61
-59
-49
-33
-23
-11
-14
-21
-16
-25
-37
-37
-40
-37
-28
-23
-25
-30
-30
18
200
549
965
1196
644
-646
-1203
-623
-179
-127
7
84
37
44
84
63
28
35
51
56
61
51
21
30
63
75
87
118
134
141
158
186
226
269
304
349
389
415
424
415
365
278
188
87
-51
-174
-264
-328
-372
-398
-408
-408
-396
-372
-356
-344
-332
-320
-302
-280
-271
-278
-280
-269
-250
-238
-226
-219
-219
-212
-198
-184
-179
-177
-177
-177
-169
-160
-158
-162
-169
-169
-160
-155
-155
-179
-219
-233
-212
-198
-198
-200
-202
-207
-205
-193
-184
-184
-181
-167
-153
-146
-139
-139
-134
-122
-129
-143
-134
-127
-125
-108
-94
-82
-75
-75
-75
-63
-47
-37
-40
-42
-37
-23
-9
-2
2
-2
-9
-7
9
11
-7
-21
-16
-2
9
16
14
11
23
59
162
429
814
1125
965
-59
-1071
-906
-287
-106
7
162
143
113
153
146
118
139
160
148
122
101
115
143
155
169
184
195
219
240
245
259
292
330
370
415
457
483
493
479
441
391
330
243
132
16
-82
-169
-243
-283
-309
-325
-318
-311
-309
-297
-285
-271
-257
-240
-226
-219
-210
-202
-193
-177
-179
-207
-219
-195
-177
-167
-160
-158
-153
-143
-136
-125
-113
-115
-127
-127
-113
-99
-101
-106
-99
-89
-80
-80
-99
-125
-125
-110
-101
-99
-108
-120
-106
-96
-92
-77
-70
-70
-63
-59
-51
-47
-44
-35
-28
-23
-11
-2
-14
-25
-16
-16
-28
-35
-37
-28
-16
-14
-9
-4
-7
16
94
309
674
1038
1097
323
-889
-1128
-481
-148
-75
99
146
87
118
151
122
125
148
146
143
151
160
167
186
205
210
221
247
269
292
323
354
377
398
443
490
512
509
483
455
422
344
247
134
11
-99
-202
-287
-337
-363
-377
-379
-370
-358
-346
-330
-316
-302
-271
-254
-254
-247
-228
-207
-198
-186
-179
-177
-158
-141
-129
-122
-129
-139
-127
-113
-106
-108
-110
-115
-115
-108
-99
-94
-96
-101
-92
-77
-73
-73
-77
-73
-61
-54
-44
-37
-40
-40
-47
-56
-47
-44
-68
-84
-73
-63
-59
-54
-63
-63
-49
-47
-18
82
339
738
1062
818
-349
-1401
-1137
-467
-299
-151
47
23
-21
40
68
54
68
80
73
89
108
113
129
141
143
165
193
217
238
257
278
320
372
417
462
497
519
540
540
505
446
349
224
99
-23
-127
-207
-259
-283
-304
-328
-328
-318
-313
-302
-276
-252
-245
-238
-224
-217
-219
-212
-202
-205
-207
-210
-212
-198
-202
-243
-250
-226
-217
-212
-207
-202
-198
-191
-181
-172
-165
-162
-158
-151
-141
-132
-125
-125
-122
-118
-113
-106
-113
-113
-103
-99
-92
-84
-84
-82
-73
-68
-66
-61
-59
-59
-51
-47
-44
-40
-37
-37
-33
-42
-61
-75
-73
-59
-51
-40
-14
-2
-16
-33
-37
-37
-47
-56
-63
-59
-49
-44
-42
-37
-33
-11
37
188
514
896
1130
696
-545
-1243
-729
-212
-146
-28
66
16
16
66
63
66
89
87
70
68
84
106
115
127
139
153
179
205
231
257
283
316
356
398
441
467
483
486
476
448
391
309
198
68
-37
-125
-200
-252
-285
-302
-313
-313
-295
-302
-328
-320
-297
-285
-273
-264
-257
-243
-221
-210
-202
-198
-202
-202
-195
-195
-212
-250
-276
-257
-238
-236
-233
-236
-233
-224
-214
-214
-228
-243
-236
-219
-205
-198
-193
-195
-195
-179
-169
-165
-162
-169
-162
-151
-141
-136
-139
-146
-143
-132
-125
-122
-125
-143
-165
-165
-151
-148
-151
-160
-169
-169
-160
-151
-158
-162
-153
-143
-136
-132
-132
-132
-125
-110
-99
-89
-77
-68
-61
-59
-54
-44
-51
-68
-63
-56
-47
-40
-42
-40
-30
-16
-2
59
273
637
1005
962
-4
-1116
-1040
-363
-129
-63
66
66
30
77
99
92
108
120
120
129
143
155
167
179
188
186
181
195
228
254
271
292
325
372
420
450
467
469
464
448
401
335
259
158
42
-59
-148
-224
-273
-302
-318
-325
-313
-297
-280
-266
-252
-236
-224
-214
-200
-193
-193
-200
-198
-179
-162
-158
-143
-134
-134
-127
-115
-110
-110
-118
-148
-158
-134
-125
-125
-113
-110
-106
-99
-92
-94
-125
-146
-127
-118
-139
-153
-139
-127
-136
-127
-115
-110
-103
-96
-82
-73
-73
-63
-56
-56
-44
-37
-33
-30
-33
-23
-9
-4
-9
-11
-7
-2
4
11
11
9
7
9
16
9
-7
-7
7
21
37
49
40
23
33
37
21
11
9
7
9
14
28
30
11
-9
25
217
585
1003
1205
597
-715
-1236
-625
-202
-191
-54
40
-18
-14
25
7
0
21
33
40
47
47
51
73
99
115
132
146
167
200
236
276
318
349
387
436
483
514
519
505
472
413
328
212
84
-42
-155
-224
-266
-295
-306
-316
-306
-280
-259
-240
-228
-226
-210
-186
-167
-155
-148
-141
-129
-110
-99
-92
-87
-92
-84
-66
-59
-59
-80
-103
-92
-77
-80
-96
-127
-143
-125
-108
-103
-101
-99
-101
-89
-75
-70
-68
-70
-68
-56
-49
-47
-44
-49
-47
-40
-30
-25
-28
-30
-28
-33
-40
-42
-40
-37
-37
-30
-23
-18
-18
-21
-18
-11
-2
16
25
21
11
9
16
-9
-63
-80
-66
-59
-51
-49
-44
-42
-30
-7
59
257
618
1021
1144
405
-903
-1298
-670
-271
-217
-75
-11
-66
-47
-9
-25
-28
-16
-11
-4
7
16
25
42
56
70
96
118
141
174
202
238
273
299
335
382
417
441
453
443
410
354
273
172
59
-51
-143
-207
-271
-316
-318
-292
-254
-231
-264
-287
-236
-193
-200
-188
-148
-118
-110
-129
-143
-120
-103
-125
-134
-136
-160
-134
-82
-80
-96
-87
-96
-134
-141
-127
-118
-101
-110
-132
-103
-75
-101
-108
-77
-63
-73
-49
-35
-61
-68
-51
-56
-75
-75
-56
-30
-30
-66
-47
-14
-49
-66
-37
-28
-16
-14
-28
-18
0
-9
-21
-4
-14
-40
-18
14
16
-2
-21
-21
4
16
16
7
-16
-11
4
-23
-33
-4
11
-4
-25
-21
-9
-40
-63
-28
-4
-28
-28
-9
-7
25
115
311
670
1052
1024
70
-1132
-1194
-531
-276
-198
2
37
-18
33
44
-47
-44
28
25
9
-2
-47
-18
42
30
35
75
77
103
165
195
231
280
295
325
398
464
483
453
422
403
365
271
106
-33
-108
-207
-309
-379
-417
-403
-398
-413
-370
-320
-323
-344
-318
-271
-264
-254
-214
-217
-236
-210
-195
-200
-179
-169
-186
-158
-113
-160
-200
-155
-153
-188
-169
-167
-219
-231
-214
-224
-221
-198
-207
-219
-188
-165
-184
-200
-165
-143
-165
-162
-141
-132
-132
-151
-136
-99
-101
-96
-84
-101
-89
-77
-99
-89
-51
-59
-87
-47
-33
-115
-115
-44
-42
-37
-2
-2
-23
-25
-7
-16
-47
-23
4
-14
-40
-21
2
7
47
160
394
785
1210
1234
259
-1012
-1059
-356
-115
-51
92
70
47
96
56
2
35
75
75
75
77
75
94
139
169
146
113
165
226
200
198
261
313
344
391
446
450
441
455
460
431
361
254
143
23
-115
-221
-280
-320
-339
-339
-346
-356
-323
-278
-273
-264
-224
-195
-207
-219
-191
-162
-141
-118
-108
-106
-134
-151
-120
-99
-106
-127
-153
-132
-115
-136
-122
-99
-118
-115
-94
-87
-89
-113
-136
-134
-122
-110
-99
-87
-80
-73
-63
-75
-66
-49
-59
-59
-37
-40
-49
-47
-66
-66
-25
-14
-35
-16
0
-49
-101
-68
-21
-33
-37
-14
-9
-18
-7
16
28
21
0
7
28
14
-16
-7
11
4
11
7
-25
-7
59
165
403
776
1165
1123
70
-1099
-979
-276
-70
-16
118
96
49
94
110
103
108
106
94
96
115
141
146
115
87
108
132
118
118
153
172
193
243
292
320
358
403
420
398
342
290
245
174
84
-37
-174
-228
-261
-339
-361
-323
-325
-337
-311
-273
-261
-259
-238
-195
-184
-224
-219
-169
-167
-174
-132
-120
-132
-101
-94
-103
-92
-101
-110
-66
-42
-82
-80
-44
-68
-94
-59
-23
-59
-96
-59
-25
-37
-30
-21
-49
-66
-61
-80
-120
-115
-80
-77
-96
-96
-73
-56
-54
-75
-122
-118
-61
-56
-82
-56
-44
-77
-82
-44
-25
-47
-44
-59
-113
-99
-61
-61
-66
-54
-18
-40
-68
-21
-4
-30
-33
-42
-47
-51
-37
-16
-37
-42
-2
37
101
285
649
1102
1222
344
-993
-1163
-420
-146
-122
70
115
51
92
115
75
99
108
51
84
162
143
118
106
56
70
134
141
110
110
181
266
287
280
316
363
389
429
438
379
346
320
207
70
-30
-167
-311
-377
-394
-396
-379
-417
-438
-382
-370
-349
-295
-311
-318
-250
-212
-214
-202
-181
-179
-179
-132
-80
-84
-108
-108
-89
-61
-63
-59
-30
-61
-82
-47
-21
-25
-75
-106
-33
4
-40
-25
2
-25
-21
11
35
18
-44
-42
9
2
-7
7
9
4
9
37
42
-7
-28
-4
-7
14
54
37
4
4
18
-2
-14
16
18
4
9
14
59
89
66
193
578
1010
1300
995
-311
-1305
-849
-195
-103
37
200
151
113
162
205
217
186
146
167
217
224
188
195
269
266
195
238
339
344
320
391
481
476
469
526
549
554
599
599
514
443
391
243
61
-47
-148
-278
-358
-370
-394
-427
-448
-483
-446
-379
-368
-344
-309
-295
-278
-264
-271
-257
-219
-205
-186
-158
-153
-153
-122
-120
-148
-127
-89
-101
-115
-94
-70
-75
-84
-77
-87
-125
-115
-68
-68
-84
-51
-16
-63
-115
-59
-7
-49
-70
-25
-14
-44
-35
-11
-35
-73
-61
-47
-63
-66
-21
-4
-47
-63
-23
11
0
-30
-40
-37
-59
-49
0
4
-16
-9
-30
-77
-56
-23
-51
-61
-37
-30
-30
-28
-37
-11
23
-9
37
316
712
1095
1194
377
-908
-1123
-446
-148
-115
47
87
23
49
94
89
94
113
113
108
122
139
151
160
162
174
198
224
238
236
240
276
320
361
394
429
457
469
479
469
427
351
247
136
21
-103
-210
-285
-346
-377
-375
-368
-358
-351
-342
-325
-302
-283
-271
-285
-311
-299
-264
-250
-238
-226
-228
-221
-193
-177
-174
-174
-177
-181
-174
-160
-158
-160
-158
-148
-143
-139
-146
-174
-181
-143
-146
-186
-174
-141
-139
-134
-103
-89
-125
-143
-113
-108
-127
-96
-63
-87
-108
-63
-44
-92
-106
-82
-87
-87
-51
-11
-7
-30
-28
-28
-73
-96
-42
7
0
-2
18
0
-44
-21
23
14
7
23
4
-35
-44
-59
-99
-87
-51
-61
-70
-42
-23
-21
77
356
724
1085
1121
198
-1007
-1033
-361
-115
-59
84
103
37
51
106
125
115
115
103
82
84
108
153
198
195
141
125
184
228
252
304
330
342
363
370
429
488
497
500
467
422
387
309
186
51
-84
-188
-233
-285
-346
-344
-325
-311
-290
-302
-304
-264
-236
-238
-224
-221
-238
-221
-202
-210
-207
-191
-174
-174
-191
-172
-120
-115
-139
-108
-80
-108
-113
-94
-92
-80
-84
-113
-120
-92
-84
-103
-113
-106
-82
-77
-96
-87
-75
-84
-61
-40
-75
-82
-47
-63
-87
-49
-21
-28
-25
-35
-42
-21
21
42
11
4
33
14
-37
-28
28
28
-11
-7
25
14
-9
-2
61
101
-4
-89
-28
11
-25
-44
-70
-115
-96
-75
-89
-87
-80
-75
-23
82
271
613
1005
1104
377
-821
-1130
-549
-200
-129
-7
11
-30
4
14
-7
14
37
37
42
44
51
66
84
92
89
89
99
118
139
167
193
214
252
297
335
365
382
379
365
332
278
198
89
-40
-155
-240
-313
-368
-401
-415
-405
-389
-372
-356
-346
-332
-309
-287
-273
-261
-252
-238
-219
-198
-188
-207
-228
-217
-191
-179
-186
-202
-202
-188
-188
-191
-177
-167
-165
-155
-143
-129
-122
-120
-113
-103
-94
-82
-73
-70
-68
-63
-56
-47
-42
-40
-40
-35
-30
-23
-21
-23
-16
-14
-9
-2
-9
-16
-11
-4
0
16
30
42
42
25
23
35
25
7
4
4
4
14
14
14
23
35
68
198
476
833
1102
802
-356
-1227
-868
-266
-118
-2
108
54
11
56
77
68
84
101
99
108
118
110
115
132
146
162
186
205
226
252
278
306
337
363
375
372
377
403
408
368
311
238
151
54
-59
-165
-247
-302
-328
-335
-335
-330
-320
-304
-283
-261
-245
-236
-226
-214
-198
-184
-174
-169
-165
-158
-143
-134
-129
-122
-127
-143
-165
-165
-155
-174
-210
-214
-193
-181
-181
-181
-181
-172
-155
-148
-143
-143
-146
-136
-125
-120
-118
-120
-122
-115
-108
-103
-101
-110
-115
-106
-96
-96
-110
-132
-129
-113
-103
-96
-92
-96
-96
-80
-70
-59
-40
-25
-16
-18
-23
-9
-7
-30
-42
-30
-18
-11
-9
-14
-9
11
33
94
285
611
939
958
200
-951
-1189
-564
-174
-54
101
129
80
106
136
134
146
153
125
94
113
139
151
160
167
177
202
231
252
266
276
299
339
384
420
436
453
476
493
481
436
361
264
148
37
-63
-155
-226
-276
-304
-309
-297
-285
-276
-266
-252
-238
-219
-205
-191
-179
-172
-158
-139
-125
-125
-136
-158
-172
-153
-136
-139
-132
-118
-113
-103
-99
-96
-92
-82
-77
-75
-75
-73
-73
-73
-66
-66
-106
-165
-162
-134
-134
-134
-122
-115
-103
-96
-101
-103
-106
-99
-92
-84
-77
-75
-68
-56
-56
-56
-51
-44
-47
-42
-30
-30
-25
-11
2
9
0
-11
-4
-14
-40
-42
-33
-35
-35
-35
-47
-63
-73
-75
-4
236
618
981
965
49
-1158
-1236
-554
-278
-181
25
56
0
40
70
51
54
70
66
61
80
94
96
101
110
132
155
162
160
162
172
210
266
313
354
398
438
467
469
446
398
328
233
120
2
-108
-210
-285
-330
-351
-356
-365
-377
-361
-328
-309
-295
-276
-261
-257
-247
-231
-226
-247
-252
-228
-207
-198
-177
-162
-167
-167
-148
-129
-125
-125
-127
-127
-110
-99
-89
-87
-94
-89
-75
-63
-59
-61
-70
-66
-51
-49
-63
-66
-61
-56
-44
-33
-33
-42
-44
-33
-25
-18
-11
-30
-68
-66
-44
-35
-30
-23
-11
9
21
11
9
11
-2
-16
-14
-9
-2
-2
-16
-21
-2
7
7
77
339
733
1085
986
-63
-1224
-1125
-427
-195
-99
63
54
11
63
89
80
96
106
103
113
132
146
151
158
172
186
193
205
231
257
283
323
368
405
446
481
512
528
521
493
443
375
280
169
49
-80
-207
-285
-325
-354
-363
-363
-365
-354
-332
-316
-295
-280
-276
-271
-252
-236
-228
-236
-240
-219
-200
-193
-179
-169
-162
-151
-141
-132
-127
-125
-122
-113
-108
-106
-99
-96
-94
-87
-84
-77
-70
-70
-68
-66
-77
-84
-75
-70
-66
-56
-51
-51
-49
-47
-40
-33
-30
-28
-23
-23
-18
-11
-11
-9
-7
-7
0
4
0
-9
-35
-56
-44
-33
-35
-35
-35
-37
-25
-11
0
14
11
-25
-42
-28
-25
-44
-49
-42
-35
-25
-18
-18
-11
2
28
103
320
679
1059
1111
273
-929
-1071
-410
-106
-44
80
87
42
73
101
99
110
125
122
122
136
148
160
172
177
184
202
226
243
254
273
299
332
375
415
453
474
483
490
472
424
361
261
139
28
-70
-167
-259
-368
-448
-443
-441
-462
-443
-413
-401
-372
-339
-318
-304
-297
-280
-254
-236
-221
-214
-212
-200
-184
-169
-160
-158
-158
-155
-158
-162
-155
-153
-162
-155
-136
-134
-132
-132
-136
-129
-118
-110
-106
-110
-115
-110
-99
-92
-94
-99
-103
-96
-87
-84
-84
-87
-89
-84
-77
-77
-92
-110
-110
-101
-96
-92
-92
-99
-101
-94
-87
-108
-155
-184
-172
-151
-141
-132
-125
-120
-110
-96
-84
-73
-68
-63
-47
-25
-2
9
-2
-14
-21
-33
-40
-37
-37
-35
-25
-14
-4
2
9
28
108
328
691
1047
1052
205
-920
-1003
-358
-63
4
127
134
89
115
134
122
129
143
143
136
129
132
148
148
146
158
165
167
188
212
240
276
302
316
344
389
427
448
455
441
408
351
278
174
40
-75
-148
-214
-261
-280
-295
-302
-304
-292
-271
-257
-240
-217
-198
-184
-172
-160
-148
-132
-118
-113
-103
-94
-87
-73
-63
-63
-59
-56
-51
-42
-40
-47
-66
-94
-99
-82
-75
-92
-103
-99
-87
-75
-66
-66
-63
-61
-51
-40
-37
-37
-40
-49
-66
-70
-59
-56
-63
-56
-44
-40
-37
-40
-42
-40
-30
-21
-23
-44
-82
-106
-99
-92
-87
-94
-96
-80
-66
-66
-63
-63
-59
-37
-16
-16
-33
-40
-40
-51
-59
-61
-63
-68
-68
-59
-51
-51
-56
-40
94
410
792
991
502
-674
-1290
-811
-306
-188
-68
-7
-63
-54
-2
-7
-16
0
16
18
7
11
28
33
49
80
106
129
151
167
198
240
285
323
358
384
405
436
462
460
429
372
311
238
143
23
-115
-219
-252
-266
-283
-290
-283
-273
-250
-221
-202
-195
-188
-169
-143
-129
-120
-103
-99
-92
-77
-75
-80
-80
-75
-70
-61
-44
-37
-47
-47
-42
-35
-25
-21
-21
-21
-18
-18
-28
-44
-51
-42
-37
-30
-16
-11
-16
-11
-4
-4
7
11
7
-2
-4
7
11
7
7
14
21
23
23
25
25
28
30
33
30
4
-25
-30
-18
-7
-4
-18
-25
-18
-18
-14
-9
-25
-40
-35
-40
-49
-44
-40
-35
-25
-9
40
205
549
962
1132
523
-736
-1267
-708
-261
-174
4
101
42
30
56
42
28
30
25
23
37
47
54
70
77
73
89
115
134
146
169
205
245
290
330
368
403
429
450
450
415
351
271
172
54
-70
-186
-299
-379
-398
-396
-401
-394
-379
-363
-337
-323
-325
-325
-302
-278
-254
-228
-212
-202
-188
-174
-160
-143
-127
-120
-122
-110
-94
-89
-84
-84
-96
-113
-118
-103
-92
-99
-99
-82
-63
-54
-51
-56
-63
-56
-42
-35
-30
-33
-35
-21
-9
-4
-2
-7
-4
7
14
21
25
23
21
33
42
42
42
37
47
75
89
82
70
66
59
40
18
11
-2
-35
-42
-16
-4
0
18
77
285
674
1076
1139
332
-903
-1128
-476
-148
-63
106
136
68
77
110
108
110
120
127
139
153
158
153
146
153
172
191
207
221
240
271
304
337
358
354
358
403
431
429
417
382
313
233
139
21
-101
-205
-276
-313
-335
-342
-342
-337
-330
-325
-313
-290
-278
-269
-247
-228
-214
-202
-193
-184
-174
-162
-153
-167
-193
-191
-169
-167
-165
-155
-155
-153
-155
-179
-191
-181
-174
-172
-167
-158
-153
-160
-162
-153
-146
-141
-136
-134
-134
-125
-122
-122
-115
-115
-118
-113
-110
-108
-103
-108
-101
-92
-87
-80
-75
-75
-73
-68
-63
-59
-51
-47
-44
-49
-59
-51
-42
-42
-30
-21
-18
-16
-7
7
33
42
35
28
35
33
21
16
14
2
-21
-37
-21
-7
-23
-28
42
278
665
1052
1090
238
-955
-1085
-431
-132
-73
61
82
42
84
118
103
108
122
129
143
158
155
146
151
172
188
202
221
236
259
292
328
358
379
403
431
441
446
455
441
394
337
276
188
80
-35
-139
-207
-245
-271
-283
-290
-287
-269
-247
-231
-217
-210
-200
-181
-162
-148
-141
-151
-165
-153
-127
-122
-141
-184
-200
-172
-151
-143
-148
-179
-191
-167
-151
-146
-141
-141
-136
-122
-110
-103
-101
-101
-96
-80
-70
-66
-66
-73
-68
-54
-49
-44
-47
-59
-66
-68
-63
-56
-61
-66
-61
-49
-42
-42
-47
-51
-47
-40
-37
-35
-42
-47
-42
-37
-37
-35
-40
-44
-44
-37
-35
-37
-54
-82
-99
-89
-92
-103
-96
-77
-70
-77
-84
-103
-146
-158
-146
-141
-136
-129
-129
-125
-110
-94
-73
-2
219
594
977
1007
179
-967
-1099
-467
-167
-101
25
37
-14
9
40
42
54
66
70
70
73
80
82
80
92
113
129
151
172
195
224
257
292
332
372
405
441
467
476
469
434
379
306
195
56
-66
-155
-224
-269
-290
-299
-297
-287
-271
-252
-238
-224
-226
-247
-238
-205
-193
-181
-165
-155
-141
-122
-113
-103
-96
-89
-80
-68
-63
-61
-59
-68
-77
-70
-66
-66
-63
-59
-49
-42
-40
-40
-37
-30
-21
-16
-16
-16
-14
-9
0
4
2
0
2
7
11
9
2
-21
-49
-47
-30
-44
-84
-103
-92
-75
-68
-61
-56
-56
-51
-40
-30
-30
-35
-37
-35
-25
-18
-18
-33
-68
-82
-61
-51
-51
-44
-35
-18
-2
-4
-16
-28
-51
-80
-84
-75
-77
-82
-82
-75
-63
-59
-56
-11
188
554
920
948
143
-1019
-1196
-571
-245
-165
-37
-25
-68
-28
4
-7
-2
4
2
11
18
9
7
0
4
35
61
84
106
125
153
193
238
280
320
354
389
427
446
441
413
351
285
212
113
7
-92
-169
-214
-233
-243
-243
-245
-247
-233
-207
-188
-191
-212
-219
-191
-165
-153
-139
-132
-125
-106
-87
-77
-70
-68
-63
-54
-44
-35
-33
-35
-35
-28
-21
-18
-21
-21
-21
-23
-30
-33
-33
-49
-68
-63
-44
-37
-40
-37
-30
-25
-16
-9
-14
-11
-9
-4
4
7
2
4
9
14
18
21
16
18
23
25
30
28
16
11
21
25
30
25
25
28
25
28
28
4
-16
2
28
30
9
-11
-14
-14
-33
-44
-49
-73
-84
-68
-63
-73
-75
-59
25
273
658
995
875
-115
-1170
-1097
-483
-245
-146
-21
-16
-28
16
30
21
35
66
77
80
94
103
110
132
158
172
184
202
228
257
287
320
358
387
415
462
505
526
540
526
483
431
356
250
122
7
-84
-155
-205
-240
-283
-313
-299
-266
-257
-247
-231
-219
-205
-179
-162
-158
-153
-134
-122
-129
-132
-120
-106
-94
-89
-99
-115
-125
-113
-106
-106
-92
-82
-87
-89
-80
-70
-63
-63
-66
-66
-59
-47
-37
-37
-42
-44
-37
-25
-18
-21
-37
-40
-23
-14
-11
-9
-16
-21
-7
9
16
21
23
33
37
35
28
9
-7
-4
2
11
18
14
2
7
40
125
368
776
1125
1038
77
-1111
-1151
-500
-266
-148
75
94
7
14
47
44
49
66
75
87
96
99
113
125
122
120
125
139
167
200
228
254
290
337
391
434
455
474
493
488
453
382
276
148
9
-118
-221
-295
-356
-405
-408
-387
-372
-351
-335
-320
-299
-278
-257
-236
-221
-214
-198
-177
-165
-160
-146
-143
-155
-160
-141
-141
-179
-193
-172
-165
-160
-162
-188
-186
-167
-162
-158
-151
-153
-151
-141
-132
-125
-125
-125
-120
-118
-113
-99
-99
-113
-110
-99
-103
-113
-115
-96
-75
-80
-92
-89
-94
-110
-115
-115
-115
-113
-110
-106
-99
-82
-35
134
488
915
1144
604
-712
-1349
-774
-283
-207
-28
84
25
28
70
56
54
84
92
87
103
125
127
136
153
153
155
181
212
224
221
236
290
335
358
408
462
507
542
545
523
488
408
290
165
33
-99
-202
-271
-306
-316
-311
-302
-292
-276
-252
-238
-236
-236
-231
-231
-224
-202
-188
-184
-177
-169
-155
-136
-129
-127
-125
-115
-106
-96
-94
-94
-99
-115
-125
-113
-99
-89
-80
-80
-80
-61
-49
-59
-73
-87
-96
-84
-68
-73
-80
-66
-51
-44
-56
-96
-120
-84
-47
-42
-44
-37
-37
-51
-63
-70
-77
-80
-70
-56
-44
-30
-28
-28
106
472
934
1236
785
-538
-1281
-752
-224
-148
-11
84
35
44
101
96
87
96
103
113
125
134
139
134
136
151
169
188
205
224
250
290
330
363
398
436
472
497
495
476
450
389
306
214
94
-42
-162
-238
-283
-313
-323
-328
-330
-320
-309
-304
-311
-328
-342
-328
-302
-287
-276
-264
-261
-250
-226
-212
-200
-191
-184
-177
-169
-155
-153
-162
-162
-158
-148
-141
-155
-158
-127
-101
-103
-110
-108
-120
-143
-148
-143
-134
-132
-132
-125
-120
-115
-110
-110
-108
-92
-63
-37
-51
-96
-96
-70
-80
-92
-84
-84
-87
-73
-59
-54
-44
-37
-16
66
285
658
1062
1102
205
-1014
-1116
-438
-160
-115
25
56
14
51
87
75
84
113
118
120
132
141
155
172
184
195
214
233
261
290
320
351
387
415
450
502
535
552
556
538
500
438
342
221
99
-9
-92
-153
-191
-212
-233
-247
-233
-207
-198
-193
-174
-158
-146
-136
-134
-155
-174
-158
-141
-151
-148
-132
-122
-108
-92
-82
-84
-84
-75
-66
-61
-56
-80
-120
-139
-129
-127
-129
-129
-129
-122
-110
-103
-99
-103
-110
-113
-115
-120
-129
-146
-153
-148
-141
-136
-134
-141
-141
-132
-122
-120
-122
-125
-125
-113
-106
-103
-101
-108
-110
-118
-136
-136
-125
-134
-136
-125
-115
-110
-115
-120
-120
-115
-125
-127
-122
-125
-118
-99
-92
-87
-84
-89
-80
-66
-54
-44
-44
-47
-37
-21
-11
-9
-9
-4
9
35
49
35
-7
-33
-16
-9
-18
-21
-28
-30
-14
-2
4
11
21
59
207
528
932
1201
807
-379
-1087
-623
-99
-21
54
129
94
77
103
106
106
120
134
146
162
167
169
169
172
186
207
226
243
266
290
309
342
375
403
441
479
509
521
512
486
436
358
273
167
40
-70
-153
-212
-250
-273
-280
-276
-261
-247
-252
-285
-304
-271
-245
-240
-221
-207
-195
-177
-167
-158
-141
-134
-122
-113
-108
-103
-113
-143
-153
-129
-127
-151
-165
-155
-139
-134
-134
-122
-110
-108
-106
-115
-120
-101
-94
-99
-87
-70
-68
-66
-59
-59
-56
-47
-42
-40
-40
-37
-25
-23
-25
-21
-21
-25
-14
-7
-11
-16
-21
-14
-2
0
-16
-35
-44
-40
-25
-14
-7
0
-2
0
7
-9
-40
-73
-108
-110
-94
-89
-92
-89
-80
-70
-47
44
306
722
1106
1024
-11
-1170
-1116
-474
-271
-186
-30
-25
-59
-16
16
23
37
44
37
37
49
51
68
84
89
99
125
160
188
217
247
276
318
372
424
474
509
535
552
545
507
427
311
193
73
-51
-148
-214
-264
-287
-283
-271
-261
-247
-238
-224
-195
-174
-160
-153
-148
-132
-110
-94
-82
-99
-127
-136
-136
-132
-115
-110
-122
-129
-118
-101
-94
-101
-106
-92
-80
-73
-61
-59
-66
-54
-37
-28
-28
-33
-33
-23
-11
-4
-4
-7
-7
4
11
11
16
14
11
21
25
14
2
0
7
9
16
25
23
21
16
18
33
44
28
-2
-7
4
4
2
-11
-35
-47
-40
-30
-25
-28
-28
-21
-18
0
115
413
818
1121
726
-554
-1354
-885
-342
-257
-129
-16
-61
-66
-9
-4
-9
18
28
23
37
49
61
75
84
99
118
139
160
186
214
245
280
316
339
372
413
448
469
467
441
394
318
224
110
-18
-134
-221
-280
-318
-337
-339
-323
-309
-313
-292
-264
-276
-261
-224
-219
-214
-181
-160
-141
-125
-146
-200
-210
-151
-115
-160
-191
-158
-136
-134
-127
-143
-118
-77
-101
-103
-77
-70
-61
-63
-51
-28
-25
-25
-35
-40
-16
-11
-16
18
35
0
-30
-37
-28
-11
9
18
23
25
11
18
33
11
28
61
11
-73
-84
-35
-14
-9
30
42
21
42
92
96
66
70
101
82
66
75
37
-18
-11
37
66
63
73
77
77
207
361
169
-63
61
127
11
94
238
113
-42
47
141
252
712
1434
1652
736
-637
-1144
-712
-302
-136
7
21
-37
-18
21
14
54
389
663
335
-14
40
125
236
1036
2421
1904
56
1149
2848
1378
103
750
981
752
1005
1257
1392
1503
1137
556
370
330
325
566
804
951
1163
1361
1531
1786
2124
2485
2876
3426
4271
5321
6329
7412
8807
10185
11431
13102
15498
18490
19330
19330
19330
19330
19330
19330
19330
19330
19330
19330
19330
19330
19330
19330
19330
19330
19330
19330
19330
19330
19330
19330
19330
19330
19330
17110
4814
-2737
-4679
-4564
-4875
-4736
-4276
-4026
-3490
-3181
-3160
-3117
-3112
-2902
-2773
-2747
-2586
-2584
-2520
-2256
-1954
-1616
-1413
-1161
-885
-785
-656
-1054
-2487
1564
16687
16812
-7301
-16267
-9510
-10518
-10681
-6103
-4318
-4838
-4875
-4750
-4460
-3778
-3433
-3542
-3839
-4125
-4113
-4255
-4594
-4679
-4691
-5081
-5770
-5619
-4821
-4755
-4722
-4373
-4344
-4561
-5446
-6313
-6048
-5682
-6029
-7044
-8052
-6976
-4845
-5557
-8689
-10098
-9239
-8564
-7814
-8083
-9982
-10235
-9532
-9926
-9357
-6978
-6091
-6671
-7368
-11465
-14495
-9470
-4599
-5210
-4295
-2135
-2265
-2324
-1975
-2253
-2364
-2197
-2824
-4356
-4762
-3915
-4097
-4382
-3353
-3223
-4276
-4580
-5116
-7783
-10837
-10445
-7719
-5744
-4911
-5406
-5720
-4930
-4160
-3849
-4781
-7785
-7592
-4179
-4257
-6763
-10778
-12807
-10528
-9614
-10225
-9449
-8654
-8628
-8203
-7516
-7162
-6919
-6690
-6600
-6513
-6362
-6121
-5791
-5715
-5836
-5777
-5739
-5701
-5409
-5175
-5083
-4932
-4819
-4715
-4543
-4396
-4292
-4165
-4021
-3934
-3842
-3719
-3650
-3594
-3535
-3481
-3372
-3275
-3219
-3150
-3105
-3051
-2980
-2914
-2817
-2756
-2737
-2685
-2598
-2522
-2480
-2440
-2376
-2317
-2291
-2305
-2192
-1998
-1930
-1722
-1151
-566
-387
-1017
-2253
-2747
-2152
-1703
-1654
-1456
-1333
-1446
-1418
-1288
-1267
-1234
-1177
-1121
-1087
-1139
-1142
-1113
-1135
-1109
-1130
-1198
-1196
-1130
-1085
-1146
-993
-632
-623
-901
-1121
-1010
-519
-188
-363
-540
-389
-351
-564
-715
-802
-1078
-1250
-965
-790
-958
-988
-875
-868
-951
-986
-1062
-1366
-1618
-1482
-1298
-1274
-1151
-837
-578
-554
-552
-457
-389
-358
-346
-361
-377
-358
-379
-476
-615
-755
-726
-700
-908
-969
-792
-722
-802
-889
-880
-710
-356
-141
-278
-349
-257
-259
-297
-292
-261
-273
-346
-354
-330
-361
-398
-578
-870
-936
-851
-873
-875
-757
-686
-762
-809
-743
-696
-667
-606
-521
-488
-559
-599
-556
-545
-542
-502
-467
-453
-434
-410
-410
-401
-382
-389
-389
-370
-337
-278
-233
-228
-231
-207
-202
-219
-75
290
665
804
245
-934
-1420
-868
-436
-375
-276
-269
-337
-290
-238
-257
-236
-200
-191
-177
-162
-146
-115
-99
-94
-99
-92
-59
-25
-2
11
37
84
127
198
278
306
325
339
330
292
240
202
113
-25
-132
-221
-297
-349
-387
-403
-405
-370
-339
-361
-363
-330
-297
-269
-250
-243
-243
-250
-250
-250
-243
-240
-243
-226
-210
-200
-186
-184
-188
-179
-177
-191
-212
-228
-252
-259
-233
-219
-219
-212
-217
-207
-184
-174
-165
-165
-169
-155
-143
-134
-122
-125
-141
-162
-151
-134
-139
-139
-141
-134
-118
-110
-103
-101
-108
-106
-110
-120
-122
-127
-127
-125
-118
-110
-113
-113
-110
-103
-92
-84
-84
-84
-87
-82
-87
-87
-75
-87
-96
-84
-77
-87
-108
-113
-110
-108
-106
-132
-169
-169
-134
-42
193
561
899
892
87
-1019
-1137
-523
-271
-214
-73
-73
-106
-51
-37
-54
-37
-14
-4
-4
11
21
23
28
37
54
68
84
110
129
158
191
217
254
285
316
332
325
330
325
280
231
160
70
-30
-141
-247
-325
-356
-358
-363
-361
-356
-363
-387
-401
-361
-325
-330
-330
-344
-337
-290
-280
-309
-287
-228
-205
-214
-195
-179
-191
-186
-169
-165
-158
-153
-153
-160
-167
-143
-134
-139
-160
-217
-238
-207
-184
-186
-193
-184
-172
-165
-151
-146
-141
-134
-134
-132
-134
-146
-158
-158
-132
-110
-106
-103
-103
-96
-84
-89
-96
-96
-96
-89
-80
-66
-59
-59
-61
-68
-66
-54
-35
4
14
-25
-56
-66
-51
-35
-42
-44
-37
-23
-25
-47
-47
-30
-7
30
42
23
11
25
68
191
474
821
1014
708
-335
-1163
-875
-311
-153
-49
59
42
25
61
70
73
101
115
118
122
118
132
146
155
169
172
184
200
207
231
240
226
254
311
370
424
464
486
488
479
431
349
269
184
77
-56
-191
-259
-280
-295
-295
-285
-266
-247
-240
-243
-266
-271
-224
-195
-219
-214
-169
-139
-134
-127
-113
-103
-94
-84
-75
-75
-84
-82
-77
-77
-75
-108
-143
-136
-122
-120
-125
-127
-118
-110
-101
-99
-99
-92
-96
-103
-110
-113
-106
-106
-106
-103
-115
-141
-160
-153
-141
-143
-136
-122
-127
-129
-120
-108
-110
-134
-155
-153
-139
-139
-136
-113
-115
-132
-113
-99
-103
-118
-134
-120
-89
-73
-75
-89
-89
-82
-92
-101
-108
-106
-99
-96
-92
-94
-89
-70
-49
73
384
781
1062
748
-427
-1323
-974
-389
-278
-148
11
-33
-70
-21
-7
-16
-7
11
18
18
33
40
44
63
80
92
108
125
146
179
214
243
269
304
325
358
408
424
424
408
365
304
217
94
-49
-179
-261
-320
-365
-389
-401
-398
-382
-363
-342
-335
-323
-292
-236
-162
14
462
837
757
592
580
535
297
94
273
335
30
-14
200
202
44
14
-84
-377
-292
-40
-368
-592
-108
283
278
236
146
56
120
221
125
-174
-450
-549
-467
-195
191
368
292
320
363
271
240
240
214
205
174
125
11
-37
103
202
165
118
118
143
122
103
101
68
61
47
28
33
7
-14
-30
-56
-44
-37
-23
11
96
379
771
1043
802
-271
-1182
-946
-356
-103
-28
-202
-634
-844
-660
-554
-601
-549
-434
-325
-259
-181
-153
-259
-132
70
66
207
349
311
346
438
387
160
70
148
-68
-304
-23
207
-63
-252
-184
-302
-507
-538
-587
-712
-745
-733
-736
-696
-630
-604
-606
-575
-531
-516
-500
-469
-455
-434
-405
-394
-389
-387
-375
-358
-342
-328
-351
-372
-320
-273
-285
-299
-285
-276
-278
-266
-254
-261
-261
-254
-247
-238
-236
-236
-233
-231
-224
-221
-224
-252
-278
-259
-245
-245
-240
-252
-247
-236
-245
-254
-250
-233
-214
-202
-191
-186
-184
-177
-169
-160
-162
-158
-141
-136
-129
-127
-136
-132
-148
-174
-165
-162
-167
-160
-148
-127
-103
-106
-129
-139
-141
-167
-169
-148
-153
-177
-240
-285
-250
-219
-207
-132
96
488
835
894
276
-851
-1234
-660
-245
-177
-108
-118
-151
-99
-75
-96
-82
-61
-80
-84
-66
-66
-66
-42
0
11
-42
-80
-61
-70
-49
40
61
35
87
148
167
202
236
226
195
148
89
30
-7
-40
-191
-368
-354
-313
-387
-424
-396
-396
-408
-389
-379
-382
-365
-351
-335
-309
-295
-287
-280
-276
-254
-238
-231
-224
-228
-224
-205
-188
-172
-169
-186
-198
-195
-181
-177
-181
-186
-202
-224
-233
-231
-224
-231
-224
-202
-198
-198
-224
-264
-259
-233
-224
-219
-217
-212
-205
-191
-177
-172
-169
-174
-167
-151
-143
-141
-141
-148
-136
-127
-120
-118
-132
-139
-129
-120
-113
-113
-115
-118
-110
-96
-94
-94
-96
-96
-80
-56
-40
-28
-37
-54
-54
-47
-51
-70
-84
-82
-80
-70
-66
-70
-70
-70
-70
-11
224
601
882
719
-198
-1144
-1043
-453
-231
-143
-33
-37
-87
-120
-141
-129
-103
-94
-103
-99
-96
-101
-87
-68
-54
-42
-25
-4
16
47
70
87
125
167
205
247
273
292
302
287
254
205
134
47
-54
-153
-245
-316
-363
-396
-403
-405
-403
-389
-379
-370
-354
-344
-330
-318
-313
-299
-304
-320
-328
-332
-323
-297
-269
-264
-271
-276
-285
-257
-221
-233
-254
-250
-210
-188
-129
56
63
-285
-467
-309
-224
-127
-61
-276
-349
-207
-254
-320
-231
-207
-165
136
365
297
278
325
283
236
179
132
172
193
160
193
226
179
148
143
151
158
106
89
113
87
59
-4
-49
49
122
68
9
18
59
80
87
84
70
51
0
-44
-54
-70
-66
-47
-37
-23
-21
0
14
-18
28
205
443
667
587
-214
-1298
-1416
-722
-415
-384
-188
-134
-252
-238
-153
-245
-368
-172
186
269
136
-14
-243
-285
-54
-9
-169
-169
-63
-42
-28
28
82
134
191
238
285
342
401
408
387
361
273
172
84
-42
-177
-330
-472
-464
-382
-295
-323
-514
-554
-474
-479
-469
-394
-299
-252
-259
-254
-207
-160
-195
-287
-309
-254
-217
-226
-252
-261
-247
-207
-179
-202
-250
-264
-238
-200
-77
103
80
-75
-103
-118
-160
-132
-146
-271
-269
-127
-110
-158
-129
-113
-132
-118
-113
-132
-141
-151
-143
-136
-141
-151
-169
-179
-181
-132
-54
-151
-313
-325
-335
-361
-313
-280
-280
-280
-276
-264
-257
-254
-254
-254
-240
-224
-212
-198
-188
-184
-169
-103
77
420
821
1003
462
-769
-1352
-800
-323
-257
-103
-9
-75
-66
-11
-21
-33
-9
-7
-21
-9
4
4
0
-18
-7
28
44
63
94
127
160
181
212
259
295
328
363
403
405
365
320
254
158
54
-75
-210
-302
-346
-368
-384
-384
-375
-365
-342
-313
-292
-266
-243
-231
-217
-198
-179
-172
-160
-151
-143
-132
-132
-141
-136
-129
-110
-101
-113
-113
-94
-75
-59
-68
-84
-66
-73
-122
-110
-59
-63
-84
-77
-73
-63
-54
-51
-63
-101
-125
-113
-120
-110
-84
-113
-146
-118
-80
-84
-120
-146
-134
-108
-103
-113
-134
-153
-143
-122
-108
-108
-120
-127
-89
87
403
441
519
1274
1364
575
613
472
-526
-580
-61
-195
-370
-233
-167
-174
-193
-283
-325
-261
-224
-162
9
-877
-3443
-4495
-2336
-328
-214
0
818
1012
1007
1182
497
-757
-1000
-375
-73
-11
139
172
986
2527
2027
981
3004
3879
601
-1203
-172
-342
-932
-403
-233
-455
141
1066
967
269
257
514
212
-9
224
285
89
70
191
70
-56
80
295
741
1434
1838
1696
1364
1097
247
-882
-467
238
-505
-689
-143
-188
-207
-389
-738
-417
-224
-580
-729
-736
-677
-245
172
368
920
1267
325
-420
899
2633
2848
2612
2985
3101
2888
2820
2506
1994
667
-637
608
2345
1977
1630
2650
3242
2397
1795
2697
3164
1387
309
1788
3551
5227
6211
5364
3157
2041
3308
2211
-1630
-1760
1699
3414
2876
3150
5626
6305
2857
1024
988
-2275
-4653
-3230
-2773
-2593
-894
-200
-4
1113
2175
2829
3665
4658
5548
6268
6978
7750
8243
8427
8864
9579
10200
10955
11892
12996
14344
15429
16203
16989
17383
16876
15708
15047
15217
14759
13336
11965
10162
7740
6487
6482
6069
5404
5194
4953
4547
4304
4056
3709
3422
3254
3193
3119
2926
2334
3127
9166
13036
6806
1038
828
110
-1033
-1097
-1366
-2017
-2265
-2324
-2485
-2544
-2537
-2574
-2570
-2522
-2513
-2529
-2565
-2645
-2732
-2780
-2810
-2853
-2895
-2912
-2893
-2860
-2848
-2853
-2881
-2924
-2907
-2879
-2900
-2912
-2933
-2975
-2985
-2985
-3016
-3037
-3056
-3086
-3084
-3086
-3124
-3164
-3245
-3327
-3301
-3280
-3327
-3353
-3384
-3422
-3412
-3407
-3438
-3455
-3476
-3499
-3506
-3523
-3516
-3516
-3599
-3632
-3514
-3447
-3471
-3443
-3414
-3400
-3332
-3270
-3245
-3221
-3197
-3152
-3084
-3030
-2987
-2952
-2916
-2865
-2808
-2765
-2737
-2714
-2702
-2673
-2621
-2565
-2541
-2546
-2522
-2454
-2388
-2317
-2131
-1777
-1345
-1078
-1543
-2723
-3252
-2692
-2239
-2157
-1958
-1840
-1892
-1869
-1826
-1821
-1765
-1713
-1736
-1758
-1680
-1569
-1543
-1541
-1508
-1486
-1482
-1453
-1404
-1347
-1307
-1267
-1210
-1156
-1113
-1052
-995
-981
-953
-899
-894
-922
-988
-1087
-1168
-1241
-1314
-1373
-1430
-1451
-1425
-1401
-1375
-1342
-1319
-1290
-1253
-1229
-1213
-1201
-1191
-1156
-1121
-1099
-1071
-1040
-1028
-1007
-979
-965
-946
-927
-915
-899
-885
-877
-863
-854
-856
-870
-880
-861
-835
-830
-823
-802
-788
-785
-774
-762
-764
-764
-762
-748
-733
-729
-722
-705
-700
-700
-689
-677
-670
-656
-649
-646
-656
-689
-691
-656
-637
-639
-630
-620
-606
-587
-580
-575
-559
-540
-535
-538
-531
-528
-531
-519
-514
-502
-481
-479
-476
-443
-413
-427
-438
-410
-398
-401
-382
-379
-398
-401
-394
-391
-403
-413
-398
-389
-382
-342
-200
87
455
719
379
-743
-1467
-1045
-528
-460
-377
-280
-318
-323
-278
-292
-309
-276
-252
-250
-243
-240
-238
-217
-191
-179
-172
-191
-205
-169
-122
-96
-66
-35
0
44
87
113
120
118
110
92
51
-7
-87
-188
-280
-346
-396
-431
-455
-469
-462
-438
-422
-408
-403
-410
-401
-394
-408
-403
-387
-387
-377
-349
-335
-330
-335
-354
-363
-358
-354
-363
-396
-415
-391
-370
-365
-358
-356
-356
-344
-328
-318
-313
-313
-309
-295
-283
-273
-269
-266
-264
-252
-240
-233
-231
-231
-226
-219
-224
-238
-273
-309
-297
-271
-261
-254
-243
-240
-238
-221
-207
-202
-202
-198
-191
-181
-174
-167
-167
-165
-160
-155
-148
-153
-160
-155
-162
-158
-143
-151
-172
-184
-179
-167
-158
-158
-153
-143
-136
-106
18
299
677
951
644
-438
-1196
-842
-309
-191
-101
-16
-49
-56
-14
-9
-16
-2
4
4
11
28
47
35
11
16
21
35
75
99
106
141
214
271
240
188
236
292
313
328
280
226
198
127
49
-21
-141
-247
-302
-377
-420
-377
-332
-344
-401
-434
-436
-413
-365
-358
-363
-337
-320
-318
-306
-297
-304
-304
-287
-287
-304
-311
-309
-299
-280
-269
-259
-252
-261
-271
-250
-238
-243
-228
-254
-306
-306
-297
-276
-165
-59
-151
-261
-155
-153
-325
-302
-214
-273
-290
-252
-271
-264
-179
-101
-2
70
-14
-80
-25
28
56
54
-11
-87
-94
-59
-89
-155
785
1873
767
198
2213
2898
401
-1626
-1017
-401
-304
682
755
-184
195
767
167
-202
316
925
828
372
-302
-1316
-1364
-705
-651
-726
-606
-615
-651
-597
-601
-665
-705
-715
-703
-736
-1071
-1534
-1404
-1045
-1168
-1260
-1085
-1033
-1021
-882
-724
-613
-516
-427
-356
-276
-184
-148
-132
-113
-148
-202
-254
-361
-481
-559
-651
-731
-722
-698
-693
-682
-684
-665
-623
-594
-554
-493
-462
-495
-502
-443
-396
-372
-351
-372
-384
-325
-287
-302
-302
-297
-299
-295
-278
-250
-250
-280
-292
-285
-271
-252
-266
-299
-276
-240
-250
-247
-231
-233
-236
-219
-210
-236
-243
-217
-202
-202
-200
-207
-212
-205
-200
-193
-188
-188
-179
-153
-146
-186
-228
-212
-195
-219
-240
-233
-240
-261
-250
-228
-224
-205
-177
-120
84
486
946
1097
311
-984
-1257
-594
-273
-238
-66
-7
-63
-25
21
4
7
21
11
7
23
37
37
56
80
87
99
120
143
177
210
238
273
311
339
356
387
415
413
389
368
335
264
155
30
-113
-238
-316
-370
-413
-436
-462
-472
-446
-431
-431
-413
-389
-372
-349
-330
-323
-332
-330
-287
-252
-238
-217
-224
-257
-252
-226
-224
-228
-224
-214
-207
-198
-193
-193
-193
-193
-198
-198
-188
-184
-184
-172
-160
-155
-148
-148
-153
-139
-118
-110
-106
-89
54
405
618
481
290
115
9
80
172
148
51
11
35
40
35
82
184
217
202
405
686
674
556
585
606
580
611
568
403
356
379
330
332
354
295
228
228
257
243
238
276
382
689
1128
1349
790
-443
-955
-387
16
35
146
202
143
148
202
217
205
207
195
188
202
205
207
212
217
243
257
271
292
299
313
332
361
387
384
405
446
464
474
446
396
349
290
217
99
-30
-115
-191
-254
-302
-335
-342
-351
-349
-346
-365
-351
-337
-328
-299
-278
-250
-238
-252
-238
-236
-264
-297
-323
-313
-259
-221
-266
-330
-325
-318
-344
-344
-337
-382
-528
186
1463
962
-18
191
276
205
35
-464
-51
2277
4134
2109
-330
667
1382
387
290
592
287
118
136
-483
-1319
913
3528
1085
-1255
-797
-1139
-1484
-859
-523
-769
-894
-417
313
731
910
698
264
927
2983
4578
4571
4243
4389
4321
3924
3667
3591
3407
3138
2968
2754
2480
2317
2199
2090
1965
1833
1748
1663
1696
1989
2419
2537
1751
674
566
1045
1198
1196
1250
1198
1062
1021
1003
939
925
856
776
821
877
882
859
849
859
821
788
674
363
332
722
847
641
597
696
672
512
328
455
870
866
611
615
556
377
302
217
115
73
56
37
-16
-42
-42
-101
-316
-750
-1085
-1321
-3169
-5758
-5479
-3875
-3886
-4030
-3273
-2952
-3266
-3565
-3764
-3596
-3367
-3464
-3379
-2992
-2768
-2600
-2006
-1184
-870
-918
-712
-495
-476
-342
-151
-84
30
453
1460
2416
2218
1687
1871
2008
1711
1567
1552
1373
1224
1224
1257
1177
995
894
826
708
637
564
507
514
474
410
349
250
23
-278
-259
-21
35
212
580
632
441
214
-162
-481
-646
-837
-981
-1007
-1012
-1021
-981
-918
-844
-849
-1097
-1382
-1378
-1260
-1319
-1229
-656
-56
259
903
1597
1116
264
526
1059
1078
1220
1397
1250
1144
1111
995
953
953
859
623
356
139
-398
-1149
-1597
-1888
-2069
-1906
-1505
-1262
-1444
-1567
-1191
-719
-261
-9
-387
-910
-1116
-1083
-797
-106
771
1170
960
1028
1493
1319
535
-99
-448
-729
-1047
-1227
-1151
-986
-967
-1071
-1144
-1168
-1073
-974
-953
-932
-986
-1069
-1050
-955
-863
-842
-861
-903
-939
-906
-868
-875
-868
-781
-724
-748
-660
-568
-630
-696
-731
-764
-708
-632
-611
-611
-639
-672
-682
-639
-535
-512
-526
-448
-351
-283
-304
-413
-415
-325
-370
-490
-460
-365
-356
-339
-283
-299
-368
-382
-243
-56
-80
-99
186
344
103
-77
-37
-9
11
33
-18
-18
11
-94
-245
-320
-264
-110
-11
0
-4
87
250
276
191
184
250
313
316
297
339
387
346
233
153
103
59
103
181
316
632
929
877
165
-849
-1069
-552
-210
-129
-75
-68
-70
-44
-51
-75
-4
89
110
179
214
115
49
61
297
722
809
672
736
835
783
729
814
844
759
840
1097
1562
2024
1980
1637
1567
1760
1729
1477
1361
1234
1014
932
882
778
722
689
689
674
625
615
599
601
604
549
533
519
502
512
488
483
479
455
462
438
410
391
332
328
325
299
290
254
245
238
221
254
252
240
240
198
198
200
181
193
200
250
302
328
368
361
368
391
384
420
424
401
403
377
387
420
441
467
427
415
410
247
-153
-863
-866
141
342
16
403
670
637
729
649
512
592
590
474
585
738
670
641
667
618
608
597
549
441
304
299
297
236
146
-217
-1104
-1866
-1729
-1550
-1708
-1250
-1017
-2723
-4868
-4918
-3898
-3563
-3346
-2931
-2782
-2725
-2551
-2400
-2267
-2138
-2022
-1852
-1692
-1689
-1744
-1687
-1628
-1642
-1552
-1378
-1316
-1298
-1215
-1135
-1080
-1017
-934
-856
-781
-696
-623
-571
-514
-490
-519
-561
-618
-724
-828
-894
-958
-1038
-1092
-1080
-1043
-1028
-1000
-962
-925
-885
-859
-847
-837
-814
-783
-757
-729
-703
-700
-715
-712
-670
-632
-625
-608
-585
-561
-533
-512
-497
-481
-474
-464
-448
-429
-415
-410
-398
-384
-382
-361
-330
-328
-337
-339
-328
-295
-283
-313
-330
-299
-212
-101
-70
-125
-179
-191
-143
-148
-370
-585
-538
-469
-528
-521
-436
-391
-358
-306
-285
-287
-280
-285
-278
-250
-243
-240
-231
-221
-193
-179
-184
-169
-143
-132
-132
-122
-113
-125
-146
-70
212
649
1137
1687
2048
1732
1335
1788
2355
2345
2305
2355
2267
2157
2079
1994
1913
1850
1777
1699
1649
1583
1508
1463
1394
1342
1321
1283
1314
1385
1394
1439
1449
1274
880
-63
-1090
-1028
-344
-283
-535
-365
-84
-54
-94
-115
-252
-394
-401
-436
-660
-998
-1203
-1175
-1111
-1073
-1010
-993
-1003
-955
-896
-861
-840
-823
-790
-759
-764
-788
-792
-757
-700
-639
-580
-528
-488
-453
-413
-391
-415
-472
-490
-429
-368
-346
-346
-365
-387
-389
-391
-427
-472
-483
-474
-476
-483
-479
-453
-434
-462
-490
-490
-502
-505
-495
-497
-481
-443
-424
-417
-405
-405
-403
-387
-379
-375
-354
-372
-413
-379
-313
-306
-325
-311
-283
-283
-297
-290
-276
-266
-259
-247
-226
-210
-210
-217
-210
-193
-198
-226
-247
-240
-210
-200
-207
-205
-205
-200
-169
-94
113
450
774
745
-68
-1104
-1161
-564
-306
-247
-115
-82
-106
-77
-80
-89
-66
-59
-59
-54
-66
-94
-87
-35
-7
-14
2
18
9
40
115
146
155
217
278
278
264
271
316
384
401
349
259
169
89
-7
-82
-122
-167
-210
-217
-210
-212
-219
-226
-224
-217
-217
-236
-245
-243
-247
-226
-191
-174
-160
-151
-134
-120
-103
-70
-54
-92
-120
-92
-61
-56
-49
-44
-40
-35
-25
-14
-18
-30
-40
-68
-80
-47
-18
-4
30
75
70
28
14
16
9
4
7
-2
-18
-16
2
4
-9
-16
-16
-16
-14
-4
-4
-11
-23
-30
-25
-21
-28
-33
-35
-42
-33
-18
-14
-16
-23
-25
-14
-7
-4
-16
-44
-42
-14
-14
-23
-18
-21
-37
-42
-44
-44
-44
-47
-47
-40
-28
-16
9
153
469
802
833
127
-932
-1154
-611
-299
-228
-108
-89
-143
-115
-70
-82
-89
-66
-54
-44
2
61
66
33
23
28
33
51
84
108
132
160
184
210
243
273
339
467
566
549
460
424
502
604
448
-16
-285
-245
-252
-269
-236
-259
-264
-236
-200
-141
-120
-94
-16
56
89
113
191
271
302
507
1111
1666
1623
1432
1472
1411
1349
1467
1559
1668
1784
1758
1803
1996
2053
1944
1883
1892
1838
1770
1774
1729
1675
1654
1576
1517
1465
1390
1340
1269
1213
1182
1113
1010
833
715
604
155
-604
-1491
-2695
-3542
-3150
-2638
-2699
-2553
-2244
-2161
-2095
-1921
-1609
-854
-217
-561
-877
-379
-16
571
2145
2900
2121
1751
1932
1722
1508
1387
1288
1446
1505
1340
1276
1319
1312
528
-1087
-2216
-2891
-3530
-3228
-2305
-1803
-1595
-1453
-1439
-1441
-1366
-1264
-1187
-1128
-1066
-1019
-984
-932
-875
-830
-790
-750
-731
-724
-691
-632
-575
-568
-590
-549
-446
-356
-280
-214
-221
-212
-118
-125
-250
-339
-436
-554
-630
-703
-783
-816
-833
-849
-814
-748
-689
-627
-594
-580
-549
-538
-571
-594
-564
-556
-592
-582
-568
-587
-587
-559
-535
-521
-490
-453
-429
-401
-361
-318
-302
-316
-306
-264
-212
-66
389
1187
1932
2159
1944
1779
1753
1663
1571
1578
1628
1583
1465
1411
1359
1279
1227
1170
1139
1104
1028
948
880
856
802
672
528
363
236
160
-4
-261
-561
-814
-854
-788
-800
-826
-767
-759
-847
-826
-755
-724
-611
-538
-641
-641
-413
-372
-590
-660
-528
-450
-431
-438
-528
-535
-464
-372
-51
453
710
186
-953
-1472
-960
-446
-311
-247
-261
-339
-382
-363
-325
-358
-382
-240
-136
-202
-212
-179
-226
-240
-247
-287
-299
-325
-297
325
1628
2225
1675
1401
1420
1066
1071
1371
1246
1059
1073
1302
1545
1319
936
988
1215
995
361
82
320
172
-96
446
1014
830
670
814
722
559
561
488
384
391
408
344
276
297
295
212
132
96
179
280
283
280
264
224
240
269
306
304
224
191
217
240
212
169
214
316
384
387
382
408
356
252
174
101
172
290
195
84
127
198
113
-61
-108
-297
-665
-719
-745
-1106
-1298
-1182
-1071
-972
-698
-370
-356
-590
-566
-295
-467
-849
-724
-587
-833
-932
-708
-615
-752
-764
-750
-861
-901
-842
-759
-736
-877
-967
-856
-823
-910
-903
-809
-741
-658
-401
7
398
505
-172
-1241
-1392
-738
-427
-436
-306
-106
-30
-160
-245
-143
-49
63
266
325
89
-231
-186
453
1496
2124
1843
1630
1937
1862
1340
1144
1354
1493
1484
1434
1283
795
-92
210
1427
1083
221
28
186
767
778
363
389
396
233
191
181
151
129
129
110
56
28
14
63
134
110
82
89
77
73
63
73
75
75
141
162
125
127
136
141
120
68
40
-9
-77
-115
-101
-61
-63
-84
-23
70
82
54
92
115
40
-21
-21
-18
0
2
-9
-25
-42
-30
-66
-94
-44
-18
23
89
54
-30
-61
-42
-42
-42
-4
-47
-99
-75
-77
-77
-73
-108
-118
-139
-141
-77
-63
-44
-4
-40
-110
-160
-169
-174
-160
-106
-120
-151
-146
-155
-129
-103
-40
195
514
774
677
-151
-1026
-972
-462
-280
-238
-139
-172
-264
-257
-257
-276
-226
-160
-172
-195
-132
-103
-120
-37
54
30
-14
-16
-9
-59
-96
-30
61
120
155
165
202
271
261
198
184
160
33
-172
-453
-719
-828
-918
-1078
-1130
-1095
-1106
-1099
-1050
-1005
-965
-910
-863
-844
-811
-762
-719
-651
-592
-578
-573
-545
-479
-424
-401
-372
-361
-358
-328
-285
-233
-184
-143
-68
49
226
398
424
401
387
330
290
283
266
219
214
273
285
259
238
238
287
313
295
276
285
344
356
342
372
379
358
330
302
297
290
264
240
217
-54
-568
-594
-285
-519
-818
-795
-1099
-1581
-1696
-1588
-1508
-1449
-1368
-1293
-1253
-1231
-1191
-1142
-1090
-1031
-988
-960
-939
-908
-849
-759
-538
-146
250
280
-526
-1626
-1767
-1205
-946
-868
-693
-625
-670
-670
-769
-1149
-1380
-1187
-1066
-1087
-932
-757
-674
-486
-193
-68
-122
-127
-73
-56
-42
-18
-11
14
73
120
153
191
212
212
198
158
89
-7
-113
-212
-297
-358
-413
-549
-667
-500
-323
-398
-417
-325
-328
-346
-302
-269
-276
-292
-302
-365
-637
-960
-936
-689
-564
-417
-240
-387
-582
-495
-434
-488
-460
-375
-243
-35
37
-221
-455
-141
193
35
-68
42
14
-73
-59
-37
-61
-61
-47
-61
-73
-61
-59
-59
-56
-54
-47
-42
-44
-40
-35
-33
-28
-23
-21
-25
-23
-11
9
23
9
4
11
2
-7
-14
-16
-18
-21
-14
-9
-16
-23
-16
51
264
634
1021
1066
273
-873
-1045
-429
-143
-87
66
101
54
70
66
35
44
66
70
77
92
87
77
84
94
106
113
122
143
165
193
236
273
292
292
318
379
443
497
514
495
472
417
330
224
101
-14
-101
-146
-165
-179
-181
-177
-165
-143
-129
-122
-134
-151
-146
-148
-160
-167
-191
-195
-165
-151
-151
-155
-155
-143
-134
-127
-113
-103
-101
-101
-89
-82
-92
-115
-127
-110
-101
-101
-87
-84
-89
-75
-63
-61
-61
-59
-73
-99
-101
-84
-75
-75
-82
-75
-61
-59
-66
-96
-115
-94
-82
-87
-89
-99
-106
-106
-96
-87
-99
-113
-118
-115
-101
-92
-94
-99
-99
-96
-113
-118
-103
-110
-113
-87
-63
-59
-73
-73
-63
-59
-54
-56
-59
-54
-49
-47
-44
-51
-61
-51
23
233
590
965
1021
273
-837
-1024
-417
-115
-77
61
120
80
87
99
92
106
118
103
94
108
115
125
153
165
162
160
167
191
205
224
250
259
278
323
368
415
446
460
455
424
372
302
219
115
2
-84
-169
-231
-254
-276
-283
-276
-273
-259
-247
-236
-217
-207
-207
-205
-202
-205
-219
-212
-193
-188
-181
-167
-148
-134
-129
-122
-125
-125
-110
-106
-108
-108
-106
-96
-89
-84
-84
-84
-80
-73
-66
-56
-56
-56
-51
-51
-44
-44
-54
-92
-151
-151
-115
-113
-115
-108
-101
-96
-99
-101
-101
-96
-84
-75
-61
-56
-56
-51
-47
-37
-25
-23
-23
-30
-28
-14
-11
-9
-11
-16
-9
-14
-35
-44
-42
-40
-37
-23
-14
-23
-33
-33
-14
11
23
21
4
-2
9
2
-7
-11
-25
-23
-7
2
7
7
9
30
139
403
752
1024
804
-202
-1040
-778
-221
-84
-23
70
35
-7
30
16
-37
-25
4
11
18
30
33
42
66
87
103
125
134
155
200
245
295
332
361
405
453
474
460
441
431
408
365
304
205
89
-16
-99
-158
-207
-238
-252
-257
-250
-243
-231
-219
-221
-214
-198
-188
-177
-174
-167
-158
-151
-134
-122
-115
-110
-108
-96
-84
-82
-80
-82
-89
-94
-89
-82
-89
-89
-82
-80
-70
-68
-70
-68
-66
-61
-54
-70
-99
-106
-92
-84
-82
-75
-70
-70
-63
-59
-59
-80
-99
-82
-75
-75
-77
-89
-84
-75
-73
-66
-59
-54
-51
-49
-44
-42
-37
-40
-47
-37
-35
-35
-44
-77
-87
-68
-66
-61
-61
-70
-70
-59
-47
-35
-23
-33
-56
-61
-61
-80
-96
-106
-110
-113
-115
-106
-101
-99
-80
-33
132
460
811
922
339
-738
-1109
-597
-240
-181
-49
4
-44
-25
-4
-23
-4
18
9
2
14
37
51
61
77
89
106
125
151
177
193
219
269
330
394
448
486
512
523
533
519
476
415
328
236
148
47
-42
-110
-158
-193
-219
-212
-200
-202
-195
-181
-165
-153
-153
-155
-158
-143
-122
-118
-120
-122
-120
-108
-101
-92
-82
-87
-87
-75
-70
-63
-73
-108
-151
-165
-148
-155
-172
-174
-167
-153
-143
-134
-125
-132
-129
-118
-110
-103
-103
-113
-108
-96
-89
-92
-94
-96
-94
-82
-75
-73
-73
-82
-77
-63
-59
-54
-61
-77
-84
-80
-66
-59
-66
-75
-73
-66
-59
-59
-63
-75
-87
-84
-82
-80
-84
-87
-80
-68
-51
-47
-75
-89
-82
-92
-115
-122
-122
-139
-153
-153
-151
-141
-120
-92
9
269
658
941
528
-833
-1649
-974
-351
-320
-80
96
-9
-9
68
56
35
70
99
89
89
108
110
115
127
141
160
172
174
181
202
243
271
290
325
363
403
441
467
481
474
443
398
339
259
153
49
-40
-113
-158
-186
-205
-207
-205
-191
-179
-172
-151
-141
-153
-151
-151
-155
-151
-136
-125
-103
-82
-84
-94
-84
-84
-87
-103
-146
-148
-125
-129
-127
-115
-115
-108
-92
-82
-84
-84
-82
-80
-63
-61
-66
-56
-61
-70
-63
-59
-51
-42
-42
-35
-28
-35
-40
-42
-47
-51
-44
-40
-54
-54
-42
-37
-35
-33
-28
-30
-30
-21
-21
-21
-21
-21
-9
-4
-16
-35
-51
-51
-40
-35
-40
-51
-61
-66
-61
-51
-49
-51
-51
-40
7
162
490
892
1069
533
-639
-1210
-724
-285
-217
-68
33
-2
4
35
18
11
42
54
49
54
63
70
89
106
118
122
129
162
198
226
247
266
299
344
387
434
479
505
507
495
464
408
332
238
127
25
-66
-141
-193
-231
-221
-193
-179
-160
-160
-179
-167
-141
-132
-139
-143
-141
-132
-113
-99
-92
-89
-99
-92
-73
-66
-63
-70
-82
-75
-68
-63
-63
-80
-87
-80
-73
-75
-94
-127
-146
-125
-108
-113
-110
-113
-113
-99
-96
-96
-96
-103
-103
-96
-89
-82
-84
-92
-89
-80
-77
-84
-84
-84
-94
-99
-99
-99
-110
-134
-136
-115
-96
-82
-80
-75
-59
-40
-25
-28
-28
-18
-11
0
14
14
9
11
23
35
44
42
28
37
54
37
18
7
-2
