2374
2692
3029
3265
3531
3830
4061
4280
4565
4825
5011
5197
5383
5545
5691
5849
6033
6189
6280
6412
6601
6681
6681
6787
6992
7098
7058
7077
7195
7239
7228
7291
7390
7409
7390
7425
7491
7541
7536
7508
7527
7536
7517
7555
7600
7567
7517
7520
7461
7407
7767
8464
8573
7539
6646
7084
7586
7324
7211
7374
7322
7202
7237
7251
7169
7105
7093
7093
7084
7051
6985
6931
6910
6881
6879
6888
6869
6832
6728
6620
6561
6445
6332
6276
6106
5896
5871
5861
5729
5656
5666
5626
5557
5517
5498
5458
5376
5315
5322
5303
5216
5173
5147
5041
4956
4940
4895
4827
4775
4740
4718
4662
4577
4542
4530
4473
4407
4382
4353
4290
4231
4205
4179
4120
4056
4031
4009
3955
3913
3894
3847
3743
3658
3844
4419
4860
4301
3121
2902
3486
3529
3307
3402
3430
3281
3251
3281
3220
3173
3180
3156
3116
3126
3147
3081
2992
3001
3039
3022
3003
3006
2996
2959
2909
2853
2765
2641
2530
2471
2421
2358
2313
2287
2261
2233
2219
2202
2160
2118
2110
2101
2063
2028
2007
1971
1936
1917
1903
1889
1863
1828
1814
1807
1783
1759
1741
1715
1698
1682
1653
1630
1613
1597
1585
1569
1540
1524
1521
1507
1474
1439
1427
1425
1399
1378
1331
1267
1481
2129
2598
1967
796
732
1357
1342
1147
1276
1314
1206
1185
1201
1173
1156
1168
1175
1180
1185
1189
1203
1225
1241
1265
1300
1319
1316
1321
1326
1295
1227
1140
1062
994
935
892
866
836
801
791
793
782
760
742
711
680
673
678
673
664
659
662
662
657
654
654
638
612
603
610
612
603
603
607
600
593
600
600
591
581
581
593
600
586
584
605
591
553
553
553
520
487
499
511
497
485
492
499
475
414
475
940
1604
1578
501
-235
263
652
424
428
572
523
499
546
537
527
560
574
558
556
577
593
607
636
671
697
718
737
744
744
742
702
607
490
391
327
280
230
197
188
193
193
186
181
188
193
197
209
214
209
197
195
209
216
219
228
233
230
240
256
254
242
245
254
235
202
207
221
214
219
230
228
230
242
245
256
261
254
254
249
242
240
235
230
230
228
233
223
188
129
94
348
994
1397
702
-405
-355
280
230
58
219
261
188
221
254
247
259
268
268
280
294
306
322
341
346
355
391
428
445
454
454
433
384
308
226
169
124
80
51
47
44
44
49
47
30
4
4
25
32
30
44
65
70
77
94
98
94
98
113
122
120
115
124
136
134
136
146
146
141
146
160
164
160
146
127
127
139
141
146
160
153
141
146
148
146
150
157
162
157
155
162
160
120
56
186
735
1342
1055
-106
-558
28
240
7
63
162
98
101
146
134
131
155
160
167
193
209
216
240
278
310
339
362
379
381
362
343
325
268
181
117
80
37
4
-7
-11
-18
-14
0
14
16
7
-4
-7
4
14
25
35
40
51
68
75
75
73
70
65
68
77
84
87
84
94
106
110
108
106
108
117
129
134
136
143
148
141
129
115
106
110
110
101
91
89
80
61
44
-4
-54
195
845
1241
511
-603
-530
82
11
-162
-28
9
-44
-7
25
16
30
56
68
87
110
113
113
146
186
216
256
294
315
329
341
327
270
186
110
54
4
-35
-58
-75
-84
-84
-75
-68
-68
-68
-58
-51
-47
-40
-32
-30
-28
-18
-4
2
2
7
21
28
28
37
54
58
54
56
56
49
47
51
51
42
42
44
28
11
28
42
35
44
65
51
21
-2
-11
-2
-2
-23
-25
-2
9
7
7
-16
-65
106
706
1258
836
-318
-605
21
157
-42
73
160
87
101
150
155
164
176
186
209
228
245
278
308
327
353
393
440
464
475
485
482
449
386
306
216
146
113
87
65
49
40
42
56
61
58
68
75
73
80
96
106
108
103
96
98
101
89
63
9
-40
-40
-18
-21
-30
-25
-25
-49
-51
-28
-14
-18
-23
-11
9
18
16
28
44
40
32
42
49
37
42
65
75
70
70
77
68
4
-68
65
596
1161
890
-233
-713
-117
153
-54
16
131
70
82
134
117
122
160
174
186
209
226
245
280
320
351
376
407
442
466
464
440
393
318
233
167
120
80
42
9
-9
-25
-58
-65
-47
-54
-73
-63
-56
-70
-75
-63
-51
-47
-37
-23
-14
-16
-11
4
14
11
14
23
25
25
30
42
44
37
32
37
37
35
44
63
61
51
51
61
63
58
63
75
80
82
87
91
65
2
98
624
1272
1100
-32
-607
-42
245
0
44
171
103
91
141
124
115
148
162
164
186
209
212
202
214
256
296
320
343
369
384
376
348
296
223
146
87
42
7
-16
-35
-51
-58
-68
-70
-70
-87
-94
-75
-61
-61
-56
-47
-37
-30
-23
-11
-2
-7
-2
11
21
18
23
32
30
25
37
56
56
40
54
77
75
58
42
40
47
42
44
58
61
54
63
73
30
-16
219
859
1335
756
-388
-492
101
98
-70
75
120
49
87
113
58
49
89
106
103
120
148
174
200
226
252
282
310
334
355
360
339
292
223
136
58
14
-23
-70
-103
-110
-117
-134
-139
-136
-134
-131
-127
-117
-113
-115
-113
-101
-103
-122
-129
-131
-136
-134
-124
-113
-103
-103
-103
-94
-80
-68
-63
-63
-51
-32
-21
-16
-14
-14
0
16
25
35
40
44
51
58
32
-25
115
692
1291
923
-292
-664
-16
155
-70
28
127
58
70
120
115
127
162
169
174
200
214
233
273
310
327
355
400
424
433
442
433
384
306
233
155
77
35
14
-7
-21
-28
-30
-23
-18
-18
-16
-28
-37
-37
-37
-32
-23
-23
-14
2
0
-7
7
11
11
18
18
14
21
32
44
42
28
25
35
35
37
54
47
7
-23
-7
16
14
11
32
40
-16
-80
115
718
1208
702
-419
-563
89
162
-28
110
176
101
129
164
143
155
167
150
155
190
214
214
204
228
275
303
327
360
379
379
362
318
252
176
117
77
40
4
-9
-4
2
4
7
7
14
21
14
-2
-7
0
4
7
7
4
-2
-9
-7
-2
0
7
2
-11
-2
14
-9
-56
-58
-40
-44
-49
-35
-18
-18
-23
-16
-2
2
7
16
-4
-89
-115
230
902
1086
150
-744
-355
162
-14
-61
106
70
28
94
113
94
115
139
148
164
188
212
228
249
285
327
358
374
386
393
386
348
292
228
155
98
65
42
21
9
7
7
11
14
23
25
18
23
40
51
54
56
63
58
35
23
40
47
32
28
30
25
18
9
4
-14
-40
-61
-70
-75
-80
-75
-63
-61
-58
-51
-47
-42
-37
-25
-35
-101
-70
374
1071
1126
94
-697
-249
169
-32
-37
113
63
18
68
80
70
96
117
122
134
162
188
209
233
263
301
334
355
376
388
374
336
285
221
153
98
58
30
14
7
11
7
-30
-65
-61
-61
-91
-106
-87
-68
-68
-75
-73
-61
-56
-51
-32
-23
-21
-14
-11
-16
-11
7
16
4
0
11
4
-9
-7
-4
-16
-30
-35
-42
-56
-75
-82
-77
-108
-188
-80
485
1128
871
-294
-756
-155
58
-176
-98
9
-68
-68
-7
-18
-25
7
28
37
54
75
103
139
169
207
249
275
289
308
322
310
266
204
141
80
16
-25
-47
-89
-131
-117
-89
-91
-87
-65
-56
-49
-32
-11
-2
0
9
28
44
47
51
61
73
75
73
80
84
73
65
84
98
96
98
110
113
108
113
122
120
113
117
129
131
134
136
127
103
54
28
296
947
1333
605
-520
-454
155
82
-82
63
91
30
68
94
75
94
122
110
108
134
155
171
209
247
270
299
332
355
355
322
287
247
157
51
-2
-25
-58
-84
-96
-101
-101
-91
-77
-70
-68
-51
-25
-16
-11
4
14
21
35
47
54
61
63
68
80
84
82
75
68
63
40
18
35
51
37
42
51
30
21
42
54
51
61
75
80
80
49
-25
63
577
1182
958
-181
-673
-42
228
-23
42
157
70
58
108
87
82
91
61
61
106
122
113
136
183
219
247
282
315
327
327
320
285
221
141
70
25
0
-25
-37
-42
-49
-42
-23
-9
-16
-18
-4
7
16
25
37
54
58
54
63
77
80
84
94
91
89
91
96
103
106
94
82
73
58
58
65
63
61
73
82
80
80
87
96
98
77
9
32
464
1133
1144
89
-673
-179
247
23
-14
113
73
42
77
77
75
101
106
94
108
124
127
143
176
195
214
252
285
296
296
285
249
190
120
56
-4
-61
-84
-84
-87
-89
-84
-77
-73
-65
-56
-42
-32
-30
-32
-37
-40
-28
-14
-7
0
9
18
32
37
28
28
42
56
56
47
47
49
47
51
63
61
54
63
77
77
77
84
80
54
9
-51
9
461
1114
1069
-14
-713
-202
164
-58
-44
96
54
35
89
87
84
110
110
101
122
139
141
157
188
207
223
249
275
287
285
273
233
157
61
-23
-77
-115
-148
-164
-167
-169
-167
-155
-146
-148
-143
-127
-117
-120
-129
-131
-122
-115
-108
-94
-87
-87
-80
-63
-56
-54
-51
-42
-28
-14
-14
-9
7
9
7
14
-4
-37
-32
-9
-9
-7
14
28
28
14
-49
-65
292
1008
1283
402
-605
-339
209
63
-23
134
127
80
129
153
143
153
150
146
164
174
181
207
237
256
278
306
325
329
332
327
287
209
127
63
11
-32
-61
-68
-75
-87
-89
-73
-56
-51
-44
-32
-28
-18
-2
11
18
16
16
35
54
54
54
63
70
70
80
87
73
56
65
84
63
18
21
49
40
32
49
54
49
58
73
80
82
84
82
65
23
-42
56
584
1246
1104
-28
-638
-75
237
9
54
171
98
94
157
146
139
171
174
139
134
160
176
186
207
245
273
289
310
332
332
313
280
219
127
51
11
-21
-61
-75
-77
-87
-82
-73
-82
-80
-73
-68
-47
-28
-30
-28
-4
-9
-47
-51
-18
-11
-16
4
23
16
11
18
9
-11
-11
14
25
14
16
37
47
37
37
42
32
23
35
49
63
63
63
75
44
-28
148
770
1291
775
-388
-544
131
204
-4
131
202
122
150
202
171
157
186
202
202
207
212
223
230
240
278
313
332
348
362
365
339
280
204
134
70
21
-14
-51
-101
-127
-110
-94
-98
-110
-127
-129
-113
-96
-80
-70
-63
-51
-32
-23
-23
-16
-2
4
7
21
35
35
28
35
47
42
40
54
58
44
49
73
80
68
63
70
80
82
82
84
84
82
84
96
84
9
58
551
1241
1180
70
-640
-134
233
21
42
171
101
73
134
129
103
117
127
113
115
139
157
171
181
193
223
237
228
245
268
247
195
127
42
-49
-120
-153
-171
-186
-183
-171
-167
-167
-155
-134
-122
-115
-101
-91
-84
-73
-56
-42
-37
-37
-28
-14
-9
-9
-2
2
2
4
7
-2
-16
-23
-14
0
-2
-11
2
16
4
-4
2
4
2
2
7
9
7
7
11
9
-21
-80
40
591
1229
1010
-153
-711
-150
127
-101
-87
-16
-80
-75
-37
-49
-44
-16
-2
11
40
65
77
106
148
190
226
263
296
320
329
320
289
226
143
77
37
0
-32
-44
-47
-51
-54
-44
-28
-25
-25
-11
4
16
21
30
40
42
47
61
73
75
73
82
94
94
98
108
108
106
108
110
91
63
65
87
91
87
89
98
91
80
82
91
96
94
91
98
91
61
56
73
35
-40
108
699
1300
958
-233
-645
-37
136
-98
-11
82
9
21
75
58
51
65
65
80
108
134
155
179
209
245
282
322
355
372
381
372
325
256
186
113
58
30
9
-11
-25
-35
-54
-80
-91
-91
-91
-91
-77
-70
-80
-70
-40
-28
-42
-35
-11
7
11
4
11
32
35
30
35
37
32
40
54
58
54
47
44
42
16
-2
9
7
-9
0
9
-4
-28
-32
-30
-32
-44
-98
-143
136
801
1142
358
-742
-612
18
-54
-193
-30
-4
-65
-30
2
0
23
49
61
75
106
136
143
153
202
245
273
306
336
353
358
339
282
207
136
82
40
2
-16
-18
-21
-23
-16
-4
2
7
9
18
28
35
47
61
70
77
91
106
106
98
101
103
75
49
58
68
65
73
77
75
75
87
94
94
101
108
103
98
96
94
89
84
82
82
80
68
54
42
-7
-80
110
735
1225
654
-518
-645
16
75
-113
21
82
9
40
89
73
77
106
120
131
153
171
193
219
252
289
329
358
372
391
400
384
332
259
171
89
40
14
-7
-23
-35
-32
-30
-51
-70
-58
-47
-49
-42
-21
-21
-49
-63
-42
-23
-23
-14
0
4
4
14
28
32
32
28
9
-18
-21
2
2
-14
-7
7
-4
-16
-14
-18
-25
-30
-37
-49
-51
-54
-58
-54
-77
-143
-14
563
1192
899
-287
-744
-139
70
-157
-70
35
-44
-54
-2
-9
-14
11
32
37
49
73
103
129
157
195
235
254
254
270
294
282
233
174
110
47
-2
-32
-56
-73
-73
-61
-51
-51
-63
-82
-91
-80
-63
-51
-42
-32
-18
0
11
14
21
35
44
49
56
68
70
68
75
80
84
89
87
70
65
82
87
68
49
35
21
4
-2
-2
-2
0
4
9
4
-51
-56
320
1036
1274
355
-638
-351
183
25
-51
117
106
47
101
127
98
84
94
115
129
143
171
197
207
226
254
268
292
322
336
334
310
256
186
122
70
23
-7
-21
-28
-25
-18
-14
-16
-9
7
21
25
28
42
56
54
58
77
70
56
73
91
87
87
96
101
96
96
98
94
63
28
28
40
32
28
30
16
-2
-11
-7
-4
-16
-21
-2
4
-11
-16
-4
-25
-96
-18
501
1152
949
-254
-850
-245
58
-179
-115
16
-54
-61
11
11
-4
18
40
54
77
98
115
139
167
207
247
270
287
308
320
308
256
181
101
28
-25
-56
-82
-103
-108
-91
-70
-70
-73
-51
-37
-47
-42
7
42
7
-25
7
35
35
47
70
77
80
77
84
96
91
73
65
70
87
96
75
47
18
2
2
7
-9
-25
-25
-37
-54
-42
-32
-40
-35
-58
-129
-2
572
1152
805
-348
-713
-44
169
-70
28
141
47
40
113
106
84
113
143
157
176
193
223
270
303
315
341
388
407
407
419
419
379
310
233
162
101
63
56
35
14
28
42
18
4
28
49
35
32
65
61
32
47
65
63
63
65
70
96
108
94
101
91
49
40
54
35
4
7
42
47
7
9
47
30
-14
-21
-23
-47
-70
-82
-61
-77
-167
-68
504
1168
956
-212
-768
-179
101
-127
-49
87
16
16
80
58
47
98
129
146
143
117
164
245
254
256
318
358
334
339
376
360
318
263
176
96
40
-2
-37
-51
-44
-40
-37
-37
-28
-18
-2
11
7
11
23
32
54
75
42
-35
-35
23
54
49
9
-4
14
9
9
7
11
73
96
35
32
49
32
84
84
-4
9
65
30
0
4
-75
-167
77
770
1326
817
-405
-643
-32
30
-136
11
82
37
68
54
28
63
84
103
115
91
108
150
155
188
256
292
329
348
341
374
374
275
195
179
110
11
-9
-9
-23
-42
-61
-73
-75
-82
-94
-75
-42
-51
-68
-40
-11
9
18
0
16
47
25
11
63
73
21
30
82
89
40
28
70
73
61
117
129
37
0
80
115
68
80
122
84
23
-21
4
426
1168
1239
84
-805
-308
153
-56
-70
80
56
-23
4
75
54
4
42
94
65
44
103
150
155
209
263
249
273
320
341
339
294
207
110
75
21
-108
-143
-117
-141
-136
-108
-115
-129
-115
-82
-89
-113
-89
-56
-51
-37
-44
-73
-51
-40
-77
-49
-16
-61
-30
32
-23
-63
-47
-30
4
-32
-96
-65
-49
-68
-61
-25
-14
-37
-30
0
-7
-54
-96
101
711
1213
692
-501
-704
4
150
-65
-9
40
7
32
32
16
82
101
23
47
174
256
256
1116
3656
4393
1825
1788
4575
4768
3477
3533
3529
2666
1802
779
-673
-1663
-1415
-315
261
-812
-1580
-511
44
-671
-940
-786
-862
-662
-435
-829
-1326
-1788
-2247
-2497
-2586
-2805
-2511
-1357
-1149
-1406
-737
-407
-845
-1041
-603
37
18
-395
-247
56
-9
-68
11
35
56
122
167
148
240
621
1126
1529
1203
-7
-452
103
181
30
153
131
70
141
167
139
101
106
188
214
155
176
235
190
188
299
365
362
379
412
405
355
285
216
167
134
94
37
-42
-89
-98
-134
-124
-61
-56
-61
-42
-44
-18
7
4
73
84
28
56
82
101
110
82
124
162
89
56
136
148
129
186
167
120
162
209
230
226
245
299
308
325
379
362
282
289
617
1262
1597
862
-230
-146
506
480
313
442
447
343
395
468
405
341
376
393
369
365
376
409
445
480
492
487
541
652
789
921
1100
904
-664
-2115
-1521
-1015
-1540
-1474
-1137
-1213
-1251
-1149
-1069
-1043
-1057
-968
-881
-916
-902
-808
-784
-822
-751
-671
-702
-690
-629
-626
-607
-534
-490
-499
-494
-464
-475
-466
-412
-388
-419
-428
-348
-280
-329
-376
-294
-219
-247
-299
-358
-129
619
1156
530
-650
-765
-87
4
-252
-174
-28
-87
-134
-44
14
-37
-56
30
77
77
117
129
115
157
235
294
313
318
322
313
285
207
124
65
-2
-35
-68
-134
-136
-101
-117
-124
-87
-51
-35
-47
-44
-21
-28
-23
4
21
47
51
30
47
68
32
9
54
103
98
68
75
108
115
80
56
77
87
89
91
84
113
129
96
98
80
-65
-7
607
1333
1126
-89
-666
-68
204
-9
75
188
113
110
174
190
209
233
235
252
263
249
278
355
393
386
428
513
534
537
565
525
424
336
273
228
148
58
25
14
-7
-7
-9
-30
-32
4
37
16
-11
4
30
40
51
56
54
68
94
101
80
73
98
110
103
98
87
65
70
80
82
103
110
89
82
77
49
30
51
61
44
51
37
-30
141
777
1335
850
-322
-532
127
226
0
103
204
150
155
186
167
179
242
273
261
268
299
313
327
360
395
435
473
494
508
511
490
419
318
237
179
110
68
54
28
-4
-9
2
-4
-16
-14
-14
-4
14
2
-28
-35
-23
-14
-4
-9
-14
-2
9
18
28
30
25
11
-7
-7
23
32
23
32
42
37
37
49
56
58
73
84
91
101
101
98
82
9
70
577
1232
1093
-23
-633
-80
233
-7
35
171
106
94
160
153
139
169
195
200
216
240
254
275
315
358
398
431
447
457
464
452
395
294
193
113
42
-7
-37
-63
-87
-94
-106
-120
-120
-113
-117
-122
-115
-106
-101
-101
-101
-96
-87
-84
-82
-80
-94
-117
-117
-98
-94
-94
-84
-73
-63
-56
-56
-61
-51
-35
-28
-18
-9
-9
-4
14
21
30
49
51
44
54
49
-9
101
657
1288
1043
-103
-600
-16
245
28
94
214
153
131
162
146
131
157
181
195
209
221
245
280
313
346
388
424
447
468
485
471
412
320
237
174
108
54
21
-9
-35
-35
-25
-23
-25
-23
-21
-35
-73
-82
-58
-51
-54
-37
-23
-18
-18
-11
4
18
23
32
40
37
40
54
61
58
61
75
87
80
89
115
113
91
94
96
82
63
54
56
65
77
89
94
63
0
94
610
1272
1170
68
-596
-77
261
49
84
209
134
120
193
188
169
204
216
193
190
207
228
254
280
303
339
369
384
407
419
372
289
209
115
-4
-98
-131
-150
-183
-188
-171
-176
-174
-150
-136
-120
-106
-106
-94
-68
-51
-51
-44
-28
-18
-23
-35
-30
-9
-7
-7
7
14
23
40
37
40
63
70
68
73
73
87
103
98
98
103
96
94
108
124
124
122
129
136
127
80
37
282
914
1300
614
-466
-419
204
179
23
176
207
136
183
214
186
197
214
186
176
197
212
223
256
285
308
327
348
376
386
376
351
282
183
96
23
-44
-84
-101
-108
-110
-106
-96
-82
-80
-77
-58
-40
-32
-30
-16
2
7
11
37
49
37
40
56
70
75
75
84
87
73
70
87
87
70
82
106
98
94
117
124
106
96
103
115
117
110
115
124
127
127
134
124
47
16
374
1048
1234
329
-598
-289
235
75
-11
136
110
47
82
82
56
68
82
77
77
101
129
148
162
190
233
263
261
256
278
289
256
195
129
61
2
-35
-58
-80
-94
-96
-98
-101
-91
-73
-61
-56
-47
-30
-16
-9
-4
7
21
30
37
47
54
51
54
68
75
75
77
80
82
89
98
96
87
68
51
49
42
32
37
44
44
42
28
21
30
35
25
-18
-9
353
1034
1253
353
-617
-336
193
42
-47
101
82
21
56
70
51
63
82
91
106
115
124
155
190
219
259
301
329
346
362
367
339
275
195
129
73
25
-2
-16
-32
-40
-30
-18
-16
-11
-2
9
16
21
32
47
44
37
44
56
61
63
70
77
73
56
54
56
25
-4
14
37
32
23
35
51
51
51
61
63
58
68
80
87
87
94
98
98
75
-2
42
501
1152
1112
51
-673
-195
179
-47
-47
94
47
23
75
68
58
89
106
117
141
155
164
193
233
268
296
325
353
374
381
369
329
249
169
110
63
21
-11
-30
-35
-49
-65
-58
-49
-77
-103
-77
-51
-51
-42
-23
-25
-44
-54
-44
-40
-47
-37
-14
-4
-9
-16
-25
-21
-7
-2
-11
-7
4
7
9
14
11
11
18
21
21
28
35
32
14
-11
-73
-42
386
1048
1041
-32
-798
-303
120
-106
-120
35
-11
-58
-14
-2
-9
9
37
61
84
103
124
148
160
179
216
259
292
306
315
320
296
233
162
103
49
4
-16
-23
-54
-91
-82
-56
-49
-54
-54
-40
-28
-18
9
28
18
30
56
61
56
65
82
94
96
91
98
113
108
94
106
124
117
113
120
117
113
127
136
136
129
108
84
96
94
7
4
412
1031
1005
-7
-706
-221
171
-49
-51
96
51
23
73
77
82
113
120
117
146
183
195
207
247
282
301
336
369
362
353
355
322
237
136
61
18
-21
-54
-54
-44
-47
-47
-47
-42
-30
-16
-2
4
4
21
40
47
54
68
77
89
91
94
96
91
87
89
87
77
51
25
25
40
37
37
56
65
42
25
32
44
44
35
-25
-21
362
944
895
-80
-709
-209
174
-42
-42
101
37
-2
51
56
42
56
70
75
89
120
150
162
169
183
197
228
247
249
254
237
202
136
56
-4
-47
-84
-108
-113
-117
-120
-106
-103
-103
-91
-84
-75
-68
-58
-37
-23
-16
-4
11
28
35
40
54
73
73
56
54
70
61
37
56
77
56
54
87
94
75
75
94
103
101
49
-14
193
737
1017
395
-490
-379
188
150
16
148
167
108
136
146
115
120
141
136
146
181
169
148
186
230
249
280
320
332
322
313
278
202
129
73
21
-23
-49
-51
-40
-42
-51
-47
-40
-32
-16
-2
2
-11
-16
-7
7
21
23
32
51
54
58
91
101
82
89
103
80
54
56
65
63
58
70
84
77
73
87
101
75
2
37
438
984
902
-7
-541
-68
252
61
91
223
164
136
181
160
122
146
174
160
153
179
200
188
174
197
226
233
247
270
273
247
190
120
58
0
-42
-80
-122
-143
-134
-122
-115
-110
-106
-91
-75
-63
-47
-42
-42
-28
-18
-18
-11
-4
2
14
16
25
56
65
42
40
58
63
56
54
58
61
63
70
84
84
75
84
98
61
-11
108
633
1177
874
-169
-520
21
188
-2
82
174
108
113
160
136
108
122
143
150
157
179
202
230
252
259
275
310
332
332
334
313
249
169
98
30
-28
-73
-110
-129
-124
-115
-110
-110
-106
-91
-77
-70
-58
-47
-44
-44
-30
-14
-9
-7
2
7
4
4
18
40
44
28
35
56
51
44
51
51
42
44
61
65
61
61
73
80
56
-7
96
617
1206
982
-68
-534
-23
214
25
80
169
91
82
120
80
65
108
120
110
136
167
186
200
226
261
294
325
358
384
384
358
308
240
164
103
61
18
-18
-30
-25
-42
-84
-108
-98
-98
-106
-96
-82
-87
-87
-70
-56
-54
-61
-68
-65
-58
-51
-44
-32
-30
-30
-21
-7
9
14
7
14
30
30
32
37
32
35
49
49
35
28
35
32
4
-51
-91
94
683
1232
808
-341
-607
-4
110
-84
23
106
44
65
108
98
110
139
148
160
183
200
219
252
289
322
351
384
419
435
435
417
360
275
197
139
80
28
2
-9
-23
-30
-28
-28
-35
-37
-32
-35
-51
-51
-37
-35
-32
-28
-25
-21
-18
-23
-21
-25
-42
-37
-25
-23
-21
-14
-11
-4
-2
-9
-14
-9
-11
-30
-42
-28
-11
-18
-18
-2
4
-7
-4
14
28
32
40
47
44
14
-28
122
666
1215
876
-240
-603
7
212
14
87
160
103
124
157
141
157
190
195
200
223
242
268
303
329
362
400
431
461
480
480
461
412
325
223
129
65
18
-16
-44
-61
-80
-98
-108
-108
-108
-101
-91
-84
-82
-77
-70
-87
-115
-106
-87
-113
-136
-113
-89
-91
-87
-73
-63
-58
-47
-32
-23
-25
-23
-7
14
21
9
4
11
4
2
11
18
18
23
37
47
47
54
65
63
32
-14
136
678
1185
801
-273
-556
40
202
16
101
167
89
103
150
131
129
153
146
148
174
188
195
223
261
292
320
346
365
372
367
348
303
221
129
65
14
-28
-58
-75
-82
-103
-134
-134
-115
-117
-117
-98
-84
-84
-87
-77
-65
-58
-47
-30
-23
-23
-16
-2
9
14
18
23
25
30
42
54
54
49
56
68
73
77
80
80
70
63
73
70
73
82
70
56
61
65
68
73
73
75
84
94
91
91
70
16
115
610
1175
923
-131
-546
11
237
32
89
193
136
129
169
153
129
115
94
84
94
94
96
117
148
174
209
247
268
280
299
301
263
197
124
61
11
-25
-47
-58
-75
-80
-65
-54
-51
-49
-51
-68
-73
-56
-54
-61
-58
-49
-40
-47
-80
-98
-80
-65
-65
-54
-35
-30
-30
-21
-9
-2
0
7
14
16
21
28
35
35
42
44
42
54
68
54
30
11
9
23
28
21
18
25
21
-9
-40
-87
-115
153
779
1086
310
-713
-567
4
-77
-195
-47
-37
-103
-65
-30
-40
-25
-21
-35
-23
7
21
44
87
117
150
202
245
268
285
296
280
233
164
103
49
-2
-35
-42
-47
-54
-49
-40
-37
-30
-18
-4
2
2
11
30
44
51
49
49
56
63
73
84
87
82
89
98
101
101
106
103
75
44
51
68
63
56
65
82
84
75
70
82
77
61
54
47
23
-11
-30
-25
-23
-21
-14
-11
-42
-87
56
588
1137
801
-322
-678
-56
141
-63
21
113
51
65
115
103
106
134
143
153
179
202
212
235
268
289
308
343
369
386
391
384
353
294
212
143
98
61
30
14
7
2
4
11
21
23
18
25
37
23
-2
2
14
-14
-42
-30
-21
-47
-58
-37
-25
-35
-37
-28
-28
-37
-42
-42
-51
-68
-68
-56
-61
-65
-47
-35
-51
-56
-47
-40
-37
-35
-35
-30
-23
-21
-14
-21
-82
-61
346
1001
1048
28
-777
-315
141
-61
-77
80
25
-14
51
58
40
61
80
84
98
120
146
171
195
228
273
313
336
355
367
367
346
282
186
77
-16
-61
-73
-89
-101
-94
-89
-89
-82
-65
-51
-47
-44
-28
-11
-9
-7
7
14
7
4
9
9
-4
-11
0
4
2
-2
-9
-21
-23
-16
-2
9
0
-2
18
30
21
28
40
35
35
54
65
63
65
73
80
70
18
51
457
1095
1154
174
-631
-204
256
63
25
167
129
87
120
110
98
134
160
162
179
202
212
197
207
249
289
313
339
360
372
374
355
296
219
153
106
65
30
7
2
2
-11
-25
-25
-18
-25
-32
-25
-16
-21
-30
-23
-16
-23
-11
7
0
-4
9
16
4
-23
-47
-42
-32
-30
-14
-7
-21
-14
4
4
4
7
0
2
11
9
0
-14
-18
-4
2
-40
-91
108
697
1140
579
-530
-603
56
68
-148
4
73
-11
11
56
42
51
82
94
103
115
120
134
164
195
228
259
280
301
315
315
294
245
179
110
44
-4
-35
-61
-75
-82
-82
-80
-77
-80
-77
-77
-80
-80
-75
-68
-68
-65
-63
-61
-54
-47
-40
-28
-23
-35
-56
-58
-47
-32
-21
-25
-25
-14
-9
-4
4
14
18
21
21
35
49
56
56
51
7
-70
106
735
1206
586
-541
-560
96
108
-63
84
131
58
98
146
129
131
157
174
188
207
226
247
273
299
332
372
395
405
414
421
400
355
292
216
143
91
65
51
32
16
18
32
32
18
16
16
16
21
25
28
28
25
23
16
11
16
11
-4
-14
-9
-7
-9
-4
2
2
-2
-4
-4
-4
-30
-63
-56
-35
-40
-44
-32
-23
-18
-9
-14
-75
-115
202
883
1104
202
-720
-384
146
-18
-82
89
70
14
70
98
87
103
113
106
122
146
164
193
226
247
278
315
332
325
327
325
289
226
157
94
30
-21
-47
-56
-73
-80
-75
-75
-80
-75
-65
-58
-56
-58
-63
-68
-63
-49
-40
-40
-40
-42
-40
-30
-30
-42
-49
-65
-96
-103
-96
-127
-160
-143
-122
-124
-127
-115
-101
-94
-84
-68
-54
-54
-49
-37
-77
-139
77
713
1177
588
-511
-556
65
77
-87
54
89
-2
30
77
61
73
106
124
136
153
174
204
235
261
296
334
362
384
402
409
386
325
252
188
131
82
51
30
16
11
21
32
32
30
40
56
61
65
75
73
44
28
44
56
51
51
63
68
65
73
82
84
80
73
68
77
84
77
58
54
63
65
61
47
35
28
7
-23
-28
-18
-18
-18
-16
-54
-106
98
727
1227
666
-482
-579
58
91
-89
42
82
4
35
75
61
61
58
54
73
98
113
141
181
209
237
273
313
339
351
355
339
289
219
153
98
49
9
-7
-11
-18
-21
-23
-42
-73
-82
-63
-47
-47
-42
-23
-11
-7
4
18
21
23
23
11
0
2
9
16
21
23
30
37
35
35
44
54
54
58
65
58
47
51
58
44
25
23
35
30
16
9
7
0
-2
0
-4
-63
-58
327
1001
1133
169
-706
-325
164
-11
-56
103
73
23
82
103
89
103
115
122
136
155
179
209
235
256
292
329
336
320
329
336
308
242
157
84
32
-11
-42
-54
-61
-63
-56
-54
-54
-42
-25
-11
-7
-11
-9
2
11
18
32
35
32
42
56
58
56
58
65
70
70
75
80
75
73
80
89
87
87
89
94
96
94
98
108
103
75
61
73
70
44
25
21
9
0
4
2
-7
-4
4
7
-9
-70
-40
379
1024
1046
28
-779
-374
68
-103
-124
18
-14
-51
-21
-35
-42
-16
-14
-9
23
51
68
96
139
171
200
237
275
299
308
303
282
235
164
96
47
0
-42
-58
-61
-65
-70
-68
-63
-61
-54
-42
-37
-47
-51
-37
-23
-21
-25
-21
-11
-7
-7
0
-2
-11
-11
-2
-2
-9
-14
-11
-16
-32
-32
-23
-44
-84
-94
-75
-68
-75
-73
-77
-82
-80
-87
-91
-91
-98
-94
-70
-61
-61
-49
-37
-40
-37
-51
-98
35
586
1156
831
-308
-680
-54
143
-70
30
141
73
70
120
124
127
146
146
150
174
193
207
240
282
315
341
374
412
428
428
419
376
306
233
179
127
80
44
-4
-47
-49
-32
-28
-25
-16
-4
0
-2
0
4
-4
-28
-37
-16
2
-7
-4
21
37
40
40
42
47
40
28
32
40
35
23
18
9
7
11
0
-14
7
35
23
-4
-4
2
-9
-16
-2
11
4
-4
4
18
9
-49
23
513
1119
942
-146
-687
-103
212
-21
18
150
89
73
117
87
51
73
89
84
103
143
174
197
223
252
296
348
381
388
393
372
294
219
164
98
32
-16
-54
-70
-63
-47
-47
-58
-44
-32
-37
-23
-7
-7
-4
2
11
37
56
42
32
42
44
44
47
40
35
35
28
16
4
2
11
9
2
9
7
-4
-7
-2
4
9
0
-16
-28
-32
-28
-18
-37
-103
-47
400
987
850
-193
-756
-193
155
-58
-25
113
51
32
101
108
98
117
136
150
167
183
207
240
254
254
285
336
365
372
379
369
320
247
164
80
11
-21
-35
-51
-63
-61
-54
-47
-44
-35
-16
-11
-14
-9
4
14
21
25
28
25
23
30
37
30
7
-16
-35
-42
-42
-42
-56
-73
-70
-58
-56
-61
-51
-35
-30
-37
-23
-7
-18
-30
-23
-9
-2
-2
-2
7
16
18
23
30
-16
-68
167
812
1276
697
-417
-513
80
103
-61
68
94
-7
21
75
58
61
91
101
110
127
143
160
162
162
197
249
280
301
322
332
318
278
216
143
65
-7
-47
-58
-77
-98
-103
-96
-94
-87
-80
-87
-94
-87
-77
-87
-96
-96
-101
-108
-106
-98
-96
-98
-106
-101
-94
-96
-96
-89
-87
-96
-98
-89
-75
-77
-98
-106
-91
-87
-94
-91
-103
-129
-131
-106
-94
-96
-87
-68
-56
-61
-108
-87
296
984
1203
315
-643
-372
146
7
-65
89
84
37
70
73
61
77
89
96
117
141
160
188
226
266
299
336
379
409
421
419
391
329
247
174
117
73
32
9
2
-11
-21
-18
-14
-21
-23
-21
-30
-56
-65
-54
-47
-44
-40
-30
-28
-28
-21
-9
-2
-2
-4
4
9
-16
-35
-21
-14
-18
-9
7
11
14
16
18
25
35
47
47
42
40
32
32
32
30
32
44
51
54
63
73
73
75
70
16
30
426
1112
1269
334
-563
-230
252
75
14
174
153
103
155
169
155
176
186
183
197
209
221
247
263
261
278
322
353
372
386
381
346
282
207
129
51
-9
-58
-96
-115
-120
-117
-120
-146
-174
-162
-141
-143
-146
-148
-174
-190
-174
-155
-148
-143
-136
-127
-117
-113
-106
-96
-94
-94
-84
-73
-70
-73
-68
-61
-56
-54
-47
-42
-51
-54
-32
-18
-25
-18
-4
-23
-47
-40
-23
-14
-14
-7
7
18
23
30
37
32
-23
-4
391
1069
1220
285
-605
-261
228
63
11
164
136
98
160
169
143
164
188
164
129
136
153
146
164
214
249
270
294
322
336
327
294
237
155
70
11
-28
-61
-89
-103
-101
-96
-94
-84
-70
-65
-65
-51
-35
-28
-30
-30
-18
-4
-2
7
21
21
21
32
47
49
49
54
61
65
65
75
82
80
77
91
101
96
91
101
115
110
106
129
139
120
101
96
101
103
101
89
68
63
73
82
80
35
-9
197
796
1255
716
-412
-567
56
136
-40
77
131
61
94
136
120
131
150
124
103
117
131
143
169
207
247
280
306
322
332
336
320
273
197
106
23
-32
-68
-101
-122
-127
-136
-143
-134
-120
-117
-120
-113
-103
-96
-91
-84
-91
-113
-113
-96
-89
-89
-87
-91
-113
-124
-113
-103
-106
-110
-103
-89
-87
-91
-87
-87
-98
-117
-117
-101
-101
-96
-82
-75
-70
-68
-63
-54
-49
-44
-30
-21
-18
-14
-4
-35
-56
223
871
1234
515
-563
-473
148
96
-49
106
136
73
113
146
127
139
169
183
193
207
221
245
282
313
332
362
393
407
417
419
391
325
228
127
56
0
-51
-91
-117
-129
-124
-115
-115
-117
-110
-96
-82
-77
-73
-70
-91
-108
-82
-65
-73
-75
-75
-70
-58
-51
-40
-23
-28
-37
-14
0
-4
0
18
18
18
35
40
37
42
49
56
63
61
65
68
61
61
80
84
82
82
63
-2
63
546
1163
1008
-98
-685
-103
235
-2
16
143
82
68
129
134
122
143
160
176
197
207
214
240
261
261
287
336
360
362
372
365
306
216
139
73
-9
-96
-136
-153
-188
-204
-188
-183
-183
-174
-162
-160
-164
-153
-136
-131
-129
-117
-98
-82
-80
-75
-65
-63
-65
-63
-51
-49
-68
-68
-44
-44
-70
-65
-42
-49
-68
-58
-47
-63
-89
-84
-58
-47
-54
-51
-37
-35
-73
-108
122
746
1175
560
-537
-563
89
113
-65
73
117
42
84
129
106
110
139
153
169
195
195
181
204
254
285
310
346
376
393
388
367
320
228
131
80
40
-14
-49
-70
-94
-103
-103
-106
-110
-117
-110
-89
-84
-87
-80
-63
-54
-49
-35
-18
-32
-51
-37
-16
-16
-18
-7
0
0
4
18
28
25
21
35
49
40
42
51
35
18
30
47
54
56
54
58
68
40
-18
139
725
1274
859
-282
-563
58
193
-9
87
136
44
73
122
98
103
141
148
153
171
188
195
214
249
287
318
346
374
395
400
379
334
266
193
127
70
-2
-84
-124
-113
-108
-124
-131
-129
-134
-139
-127
-113
-110
-113
-103
-84
-80
-82
-80
-73
-65
-61
-51
-44
-44
-51
-49
-35
-23
-23
-32
-30
-18
-21
-18
-9
-11
-18
-9
-2
-2
-2
4
4
0
-21
-82
-4
499
1161
1048
-80
-768
-256
91
-131
-115
21
-23
-40
14
21
23
51
68
75
80
80
98
141
181
216
254
292
327
351
360
353
320
247
162
94
40
0
-25
-40
-40
-40
-42
-42
-37
-35
-35
-32
-32
-35
-40
-42
-40
-35
-30
-16
-11
-16
-11
0
2
2
9
16
16
16
14
16
16
9
7
28
42
35
37
37
14
-7
7
25
21
21
35
44
47
9
-63
98
716
1293
855
-318
-591
28
146
-49
58
136
68
70
101
98
115
139
146
155
179
200
219
249
287
318
348
386
417
431
431
412
365
292
216
157
108
58
32
25
23
16
21
25
25
21
23
35
42
37
40
42
18
-18
-28
-16
-28
-42
-35
-35
-44
-49
-44
-37
-56
-87
-106
-117
-124
-113
-91
-80
-87
-82
-56
-42
-47
-51
-54
-44
-37
-28
-18
-9
-2
0
11
11
-44
-40
336
1029
1276
398
-603
-358
181
47
-35
124
115
68
122
139
117
148
179
171
171
188
202
221
249
287
327
362
388
409
426
419
388
336
261
183
122
80
44
21
9
7
7
9
-4
-32
-44
-51
-58
-49
-35
-37
-28
-23
-32
-28
-2
2
-4
-9
-4
9
7
-9
-11
-14
-30
-30
-21
-23
-21
-16
-14
-14
-18
-14
0
7
9
30
40
21
7
16
21
14
11
21
32
35
35
42
49
7
-49
176
817
1293
713
-447
-563
91
143
-35
106
157
75
106
155
141
131
136
146
162
176
200
233
245
252
296
336
339
343
367
367
343
310
245
160
94
44
7
-9
-25
-47
-44
-28
-25
-28
-16
-9
-11
-4
11
18
30
42
37
35
47
54
49
11
-25
-14
7
-7
-25
-25
-28
-47
-51
-35
-37
-54
-51
-47
-54
-47
-23
-21
-37
-28
-7
-21
-58
-87
-80
-65
-65
-63
-65
-77
-84
-75
-61
-73
-139
-91
374
1048
996
-127
-862
-336
56
-164
-136
14
-49
-73
-9
-7
-16
14
40
47
58
89
122
146
176
219
254
275
301
332
348
346
320
259
186
115
51
11
-14
-35
-47
-42
-32
-30
-28
-21
-11
-4
4
14
18
21
32
44
35
14
16
30
18
4
14
28
14
-7
-4
-2
-11
-16
-14
-14
-11
-9
-2
2
-2
-4
7
25
28
23
35
42
9
-25
-23
-9
-11
-9
7
18
18
14
14
21
-2
-65
47
596
1248
1062
-70
-638
-87
197
-21
28
148
89
87
143
134
127
160
174
174
193
214
226
247
280
303
308
322
348
367
376
374
346
285
204
136
89
49
9
-14
-16
-14
-16
-9
0
2
4
16
28
32
32
25
21
4
-23
-25
-18
-49
-96
-108
-113
-120
-120
-115
-108
-101
-96
-84
-77
-77
-73
-56
-54
-58
-51
-32
-25
-30
-9
14
4
-11
-7
7
16
18
23
30
35
40
44
35
-21
-101
9
558
1225
1079
-56
-671
-131
174
-42
4
127
63
56
120
117
110
141
153
153
171
200
221
240
263
301
343
376
405
433
440
421
381
325
249
169
106
63
18
-35
-54
-44
-49
-63
-61
-51
-47
-49
-56
-58
-61
-68
-68
-58
-61
-61
-49
-42
-42
-40
-35
-25
-23
-28
-44
-61
-68
-61
-44
-37
-37
-30
-18
-14
-14
-9
9
23
16
16
44
54
37
32
37
40
44
54
61
63
58
63
77
80
35
-35
127
727
1309
921
-247
-581
21
171
-30
63
150
82
80
94
65
77
101
68
49
84
113
122
153
193
223
256
301
339
362
369
358
313
233
141
54
-18
-73
-113
-136
-146
-160
-169
-162
-153
-148
-141
-127
-129
-160
-176
-155
-131
-129
-120
-108
-98
-91
-77
-61
-49
-49
-40
-28
-37
-49
-37
-23
-21
-14
-2
9
11
4
11
35
49
44
44
63
70
61
58
63
65
63
70
75
51
23
30
51
47
7
-32
162
765
1298
838
-325
-591
14
127
-65
40
115
54
75
120
108
115
143
153
164
188
200
207
233
261
287
322
353
362
372
372
348
301
228
141
58
2
-40
-75
-98
-103
-98
-96
-89
-80
-87
-84
-68
-54
-42
-35
-35
-32
-18
-7
0
4
9
16
23
28
35
42
44
18
-14
-21
-11
-14
-16
-11
0
7
-9
-16
-4
7
16
18
23
25
21
23
35
44
49
54
56
61
68
65
7
16
400
1074
1251
315
-636
-322
202
42
-23
143
124
75
129
143
120
143
164
153
153
171
186
200
219
233
256
292
318
339
355
351
320
268
195
117
51
-4
-49
-82
-108
-113
-103
-96
-89
-80
-89
-141
-181
-162
-139
-162
-181
-157
-131
-129
-127
-108
-84
-75
-65
-54
-47
-42
-40
-28
-18
-25
-28
-16
-2
-2
-9
-7
-2
-2
4
7
2
-4
0
7
11
9
14
23
23
11
-21
-70
82
652
1203
805
-365
-699
-51
124
-106
-9
87
9
23
77
58
44
63
73
82
98
110
129
148
150
153
190
230
252
273
294
287
237
169
94
28
-35
-106
-146
-153
-167
-167
-146
-129
-124
-124
-117
-113
-113
-96
-75
-73
-68
-47
-25
-11
-7
-2
14
28
35
44
47
42
44
54
63
70
73
75
80
80
87
103
98
82
80
91
94
80
68
77
89
91
94
96
75
9
108
636
1248
1017
-122
-659
-75
212
-16
35
162
96
84
143
146
139
160
171
174
162
153
179
207
212
235
285
322
332
336
343
320
268
202
131
56
-7
-49
-70
-87
-101
-101
-94
-94
-91
-82
-70
-65
-63
-54
-40
-35
-30
-16
-7
-14
-21
-9
-2
-28
-54
-37
-21
-28
-23
-11
-18
-18
-18
-35
-44
-32
-23
-21
-16
-16
-11
0
0
-4
7
21
21
18
21
-2
-65
42
588
1243
1005
-209
-768
-169
91
-148
-84
37
-32
-37
25
18
4
30
49
54
65
84
103
122
150
190
233
268
292
310
327
315
266
195
106
21
-40
-82
-117
-146
-162
-160
-148
-143
-139
-127
-115
-113
-117
-120
-103
-94
-94
-80
-61
-54
-47
-32
-28
-28
-16
0
4
4
9
7
-4
2
21
21
14
28
44
44
44
47
47
54
47
21
18
35
35
30
44
23
-37
122
732
1342
968
-228
-584
30
179
-40
63
155
73
80
134
124
124
155
169
176
188
204
230
259
287
320
358
393
414
409
409
402
351
273
207
143
82
42
16
-11
-32
-35
-28
-32
-51
-61
-56
-61
-68
-61
-56
-63
-56
-40
-35
-37
-32
-23
-16
-14
-9
-2
-16
-47
-54
-35
-30
-42
-44
-35
-37
-65
-73
-42
-37
-56
-63
-61
-58
-51
-40
-32
-25
-16
-4
2
-2
-30
-80
49
610
1241
991
-176
-685
-115
122
-98
-40
68
14
14
61
54
51
73
84
89
96
101
115
141
171
204
237
270
299
313
318
308
275
204
120
56
9
-40
-75
-82
-89
-96
-89
-75
-73
-82
-82
-68
-61
-68
-70
-65
-94
-139
-141
-113
-108
-115
-103
-84
-80
-75
-61
-51
-51
-49
-37
-28
-25
-23
-14
-2
-7
-18
-4
7
-2
-7
7
16
21
28
35
40
40
40
51
54
-4
-16
329
1020
1316
482
-572
-388
197
96
-7
153
146
87
143
167
143
162
190
195
209
228
242
261
287
320
360
395
417
426
435
438
417
365
289
212
143
89
49
-4
-42
-40
-44
-82
-96
-68
-51
-58
-61
-51
-56
-80
-80
-65
-63
-61
-47
-44
-58
-80
-87
-87
-84
-84
-84
-77
-68
-61
-58
-54
-47
-40
-37
-47
-37
-7
2
-21
-58
-77
-56
-35
-42
-44
-25
-16
-18
-9
4
-40
-61
280
951
1177
296
-692
-431
141
18
-58
117
101
30
96
136
113
124
155
162
150
141
155
190
223
247
261
285
325
348
358
358
334
282
219
136
54
0
-18
-32
-51
-51
-42
-44
-47
-32
-23
-21
-9
4
14
18
18
30
47
49
44
44
51
49
42
35
30
18
4
2
0
-18
-25
-7
-2
-21
-18
0
-2
-7
2
2
-4
-4
0
4
14
28
30
32
23
-25
-28
318
975
1152
223
-730
-426
101
-49
-106
63
40
-18
30
54
37
63
101
103
113
150
167
169
207
259
296
332
358
376
398
398
365
308
235
157
98
54
21
2
-11
-18
-21
-18
-21
-30
-40
-35
-21
-4
7
4
7
16
32
40
42
49
58
58
65
68
58
47
35
28
28
28
18
0
-25
-37
-40
-44
-44
-44
-51
-77
-113
-117
-96
-91
-94
-75
-73
-148
-200
94
739
1001
216
-744
-532
56
-42
-150
25
35
-28
30
63
40
61
91
94
115
139
150
171
202
226
263
308
327
346
374
376
346
292
212
131
89
58
14
-16
-23
-21
-21
-16
-9
-9
-14
-2
14
21
16
-4
-14
4
16
11
18
28
25
23
35
56
44
4
-11
-2
-2
-14
-14
-18
-32
-44
-56
-56
-58
-70
-65
-42
-44
-47
-23
-23
-42
-80
-113
108
697
1071
454
-563
-548
56
63
-103
25
80
28
54
80
68
80
113
124
131
162
181
181
219
266
296
325
348
379
405
395
360
306
214
115
51
11
-28
-56
-73
-73
-61
-54
-51
-44
-30
-23
-23
-9
4
0
0
18
35
35
37
42
18
-11
2
28
23
16
37
47
32
37
44
9
-18
-4
2
-9
-18
-25
-32
-32
-32
-30
-23
-32
-91
-103
174
751
1001
289
-617
-454
96
21
-94
63
68
4
61
94
68
68
65
44
56
101
122
103
103
155
195
221
268
299
306
306
275
212
146
82
18
-16
-42
-68
-73
-75
-80
-65
-54
-56
-51
-51
-54
-30
-16
-37
-44
-42
-73
-89
-80
-77
-73
-68
-68
-61
-56
-49
-28
-23
-42
-47
-28
-23
-37
-54
-58
-63
-77
-77
-61
-61
-82
-96
-91
-80
-106
-188
-209
106
699
841
28
-756
-459
28
-87
-157
2
7
-51
-7
30
28
51
70
68
96
134
143
167
212
245
273
310
358
386
379
365
332
259
174
117
70
2
-56
-68
-63
-61
-61
-61
-47
-28
-28
-16
4
2
2
21
35
37
44
54
58
56
61
77
84
73
75
89
84
65
44
35
40
49
58
61
54
58
61
58
44
28
32
42
28
21
23
11
4
2
-4
-44
-87
115
683
1083
570
-426
-530
40
87
-94
21
91
30
44
94
87
77
98
117
131
148
162
176
200
202
214
263
299
306
329
353
329
268
200
134
54
-21
-54
-61
-77
-94
-91
-77
-80
-96
-94
-73
-65
-65
-44
-30
-32
-30
-16
-7
-2
-2
7
14
4
9
25
25
16
18
28
28
25
30
32
30
28
18
9
9
4
-2
0
-2
-14
-16
-32
-63
-87
-94
-89
-94
-103
-98
-89
-89
-89
-84
-87
-143
-223
-101
426
1010
815
-202
-692
-207
44
-146
-115
-4
-35
-37
-2
-18
-18
21
37
42
70
98
113
129
162
202
240
270
306
341
355
353
339
287
212
150
108
73
42
25
14
-4
-14
-4
9
14
14
18
32
44
44
44
54
63
63
68
80
84
82
82
91
96
94
96
101
98
101
117
124
110
94
98
103
89
70
65
47
7
-18
-21
-32
-54
-58
-42
-23
-23
-35
-23
-2
-11
-25
-16
-9
-9
-4
7
11
14
25
35
32
25
-7
-28
228
857
1246
638
-393
-461
75
103
-42
70
117
65
91
127
115
120
141
150
160
171
169
179
209
233
240
256
294
327
346
362
365
334
263
179
108
51
9
-21
-37
-49
-58
-75
-87
-82
-77
-75
-65
-77
-106
-103
-89
-89
-87
-75
-77
-91
-94
-84
-87
-96
-98
-101
-115
-122
-115
-117
-131
-139
-134
-127
-122
-122
-120
-113
-113
-113
-98
-87
-84
-82
-73
-58
-49
-44
-35
-16
-2
-7
-7
18
35
21
18
28
30
37
49
49
32
32
51
61
63
51
-2
40
473
1133
1175
190
-598
-226
188
23
-4
131
106
58
77
75
82
103
106
115
141
162
174
200
228
249
278
318
360
386
400
409
405
360
287
214
150
84
35
16
4
-18
-35
-37
-42
-56
-54
-40
-42
-49
-40
-28
-28
-28
-23
-14
-7
-7
-14
-14
-11
-11
-2
9
14
14
18
28
32
18
9
16
18
16
28
40
40
44
49
47
54
70
80
63
40
32
35
30
21
18
14
9
16
25
32
35
32
35
28
-51
-75
306
982
1116
186
-676
-336
139
-23
-73
87
65
23
80
96
77
98
127
134
143
157
167
169
176
207
249
273
289
313
329
320
292
242
171
91
14
-54
-91
-115
-136
-134
-127
-124
-122
-113
-101
-94
-87
-73
-61
-61
-56
-37
-35
-47
-47
-37
-37
-56
-70
-54
-40
-44
-40
-21
-14
-9
-2
4
7
11
21
32
37
35
42
49
51
58
70
68
70
87
91
82
75
63
61
73
77
77
82
87
84
87
91
54
16
249
869
1274
614
-499
-508
110
91
-77
65
108
25
42
75
51
42
61
70
75
84
94
106
129
153
179
216
249
273
294
301
263
186
120
68
2
-56
-91
-110
-127
-131
-122
-117
-120
-110
-91
-80
-77
-68
-54
-47
-37
-30
-28
-32
-28
-21
-7
0
4
9
16
18
21
30
40
40
32
18
4
2
14
23
18
21
42
51
44
40
35
42
54
54
54
58
47
32
40
42
-11
-49
242
883
1152
315
-713
-506
73
-42
-150
18
16
-54
-4
21
-9
-16
4
16
11
11
37
70
91
115
153
183
202
219
240
249
226
183
127
61
-2
-49
-82
-108
-127
-131
-124
-122
-129
-141
-153
-155
-143
-134
-127
-120
-110
-94
-80
-75
-77
-65
-49
-40
-37
-37
-32
-28
-18
-2
2
-2
4
21
25
23
42
58
49
40
42
49
58
63
63
73
84
87
80
70
35
-9
179
753
1218
678
-494
-657
-2
44
-164
-21
42
-42
-4
47
25
32
63
73
87
115
131
150
179
193
202
233
273
294
308
320
320
294
242
176
106
54
18
-14
-35
-42
-40
-32
-30
-25
-14
-2
4
11
21
35
44
56
65
68
70
80
91
94
91
98
108
106
108
117
113
115
122
124
115
91
80
94
101
89
89
98
87
51
23
30
49
40
-21
-44
245
845
1057
226
-735
-492
89
-18
-127
25
16
-49
-16
-18
-35
-14
-14
-11
21
37
54
84
108
139
183
214
237
268
285
280
263
219
141
73
25
-14
-56
-73
-75
-87
-108
-103
-80
-75
-75
-68
-65
-63
-58
-56
-42
-28
-37
-42
-28
-18
-14
-9
-14
-18
-9
0
-7
-14
-4
2
-16
-58
-87
-77
-73
-98
-101
-65
-49
-54
-44
-35
-51
-108
-82
296
883
859
-113
-751
-230
171
-28
-11
136
84
58
122
115
89
115
136
139
143
150
160
169
188
219
249
268
287
306
315
301
266
207
127
58
16
-14
-42
-68
-73
-63
-58
-56
-47
-40
-35
-30
-18
-2
4
4
16
32
40
42
49
42
2
-37
-30
-7
-2
-2
-7
-16
-18
-18
-9
-4
-7
2
18
25
23
25
40
49
51
47
-2
-37
252
876
1107
303
-593
-329
209
98
11
162
160
103
143
164
153
164
169
167
181
197
209
230
256
273
294
329
358
372
379
372
348
308
245
183
122
42
-21
-37
-42
-65
-80
-89
-117
-143
-139
-120
-117
-124
-124
-113
-117
-143
-146
-129
-129
-124
-106
-96
-101
-91
-68
-61
-73
-61
-35
-37
-47
-32
-18
-11
-7
-2
7
21
23
30
37
4
-75
37
572
1114
758
-332
-610
11
167
-32
68
153
80
96
148
136
129
153
167
174
190
209
230
245
263
299
332
355
369
369
348
318
285
228
148
80
40
16
-4
-18
-23
-21
-28
-51
-61
-44
-35
-42
-30
-14
-4
0
9
16
18
21
28
32
28
25
42
54
40
30
37
21
-4
-4
-2
-11
-23
-30
-35
-28
-25
-28
-21
-35
-115
-127
237
876
977
44
-732
-303
167
-9
-37
113
70
30
94
103
73
70
82
94
103
120
146
164
186
221
256
282
301
315
325
322
299
252
190
122
68
40
21
0
-9
-7
-14
-40
-54
-35
-23
-30
-18
0
11
16
11
11
18
23
30
42
40
25
32
51
37
-11
-18
9
9
-2
11
23
18
16
28
40
40
44
54
56
35
-30
-23
362
1013
1060
28
-756
-273
183
-28
-58
80
32
-9
37
35
21
44
63
65
82
106
120
139
171
207
228
247
268
287
289
282
263
216
122
28
-18
-54
-94
-110
-108
-108
-103
-89
-73
-65
-65
-51
-30
-16
-11
-4
9
16
21
30
44
44
32
35
56
63
49
49
65
65
56
65
75
56
35
44
61
61
61
73
75
56
-9
-30
294
921
1088
209
-645
-273
256
98
32
186
164
122
171
179
157
181
200
197
214
235
245
252
268
289
303
318
327
332
308
263
221
169
94
28
-14
-47
-77
-98
-106
-106
-103
-96
-87
-77
-77
-73
-54
-40
-35
-28
-16
-7
2
0
-4
-11
-32
-32
-9
-2
-16
-9
9
2
-4
9
23
21
16
28
40
42
44
54
54
16
-68
-2
480
1067
859
-209
-647
-35
223
-14
37
150
82
75
124
87
54
91
113
108
129
155
153
141
157
202
228
240
256
273
275
261
233
183
115
54
14
-25
-61
-82
-96
-117
-136
-141
-153
-186
-200
-188
-174
-169
-167
-160
-153
-146
-141
-134
-129
-131
-134
-120
-113
-120
-120
-108
-115
-122
-110
-94
-87
-84
-84
-77
-68
-65
-63
-56
-106
-179
47
669
1046
374
-640
-504
129
75
-58
103
122
51
96
136
122
129
148
157
167
162
160
190
219
230
266
308
332
334
327
327
313
268
195
113
47
11
-2
-11
-21
-28
-23
-14
-11
-4
9
4
-14
-7
16
21
11
4
2
-4
-18
-21
-7
0
-16
-35
-28
-23
-30
-30
-23
-23
-21
-14
-2
4
4
9
18
18
-37
-101
124
732
1086
388
-617
-454
181
115
-23
136
153
87
127
129
80
84
106
103
117
153
171
186
200
204
223
261
285
306
322
313
287
245
179
113
75
44
4
-14
-14
-14
-4
0
-7
-9
-23
-54
-47
-25
-47
-47
-9
0
-14
-18
-16
-11
0
7
-2
-16
-25
-30
-32
-32
-32
-32
-37
-35
-25
-16
-9
-4
-7
-18
-77
-127
143
775
1029
219
-716
-426
176
47
-58
120
113
37
75
89
73
77
75
75
94
113
129
164
207
233
259
296
318
327
336
332
299
242
167
101
65
30
-11
-28
-30
-42
-37
-11
-11
-25
-14
4
9
11
25
37
40
40
49
63
73
68
68
89
77
44
56
73
42
9
14
14
-9
-25
-30
-32
-35
-30
-18
-25
-103
-164
110
739
1010
230
-723
-490
115
21
-94
54
56
14
70
63
16
37
70
68
87
117
139
167
200
219
230
263
301
313
315
308
275
221
148
80
37
18
-7
-30
-35
-35
-37
-32
-23
-14
-4
0
0
9
25
35
35
42
54
54
54
61
49
40
51
63
63
47
44
47
25
14
21
7
-25
-47
-49
-51
-56
-51
-42
-65
-164
-230
61
711
1013
247
-732
-553
-28
-155
-245
-84
-103
-148
-75
-44
-58
-28
11
16
28
61
96
122
148
188
228
259
294
325
327
313
292
245
167
89
44
21
-14
-30
-23
-25
-30
-25
-18
-16
-2
2
-2
16
32
32
40
51
56
61
63
47
28
30
42
44
42
40
51
58
37
16
37
51
21
0
2
-9
-25
-25
-23
-44
-82
-89
-63
-77
-160
-134
296
958
1013
32
-737
-299
129
-73
-87
73
35
2
61
70
61
91
120
127
134
153
179
202
233
268
292
315
341
362
374
362
318
254
188
124
65
23
2
-11
-35
-58
-61
-51
-49
-42
-25
-18
-11
0
4
7
16
28
35
32
32
40
30
18
28
35
18
9
23
25
11
2
-2
-18
-54
-75
-56
-42
-63
-61
-30
-35
-56
-51
-42
-42
-40
-25
-11
-7
-11
-7
4
-37
-101
101
744
1288
798
-369
-591
21
106
-84
37
103
28
54
101
82
73
91
98
87
73
91
129
153
183
226
266
296
325
353
369
355
299
219
153
94
44
7
-18
-37
-37
-30
-28
-25
-21
-9
0
7
16
21
-4
-44
-42
-18
-23
-40
-42
-42
-54
-58
-49
-44
-54
-56
-56
-58
-56
-51
-47
-40
-35
-28
-14
-11
-16
-7
7
11
11
18
23
16
2
2
18
28
23
21
44
61
49
40
44
47
47
49
47
32
30
40
49
49
9
-37
162
798
1357
902
-259
-532
47
153
-32
68
139
80
96
131
122
134
160
162
167
188
207
219
242
273
273
256
278
327
346
339
322
287
212
122
54
0
-56
-91
-103
-108
-115
-117
-117
-129
-146
-134
-113
-108
-108
-98
-82
-73
-68
-61
-49
-42
-42
-42
-28
-18
-25
-16
0
7
11
16
23
28
30
40
49
49
44
51
65
65
65
75
77
75
77
87
94
91
87
94
103
106
101
94
89
84
87
98
84
44
37
54
32
-11
-21
0
-7
-23
-16
-2
-4
-18
-37
-73
-150
-171
167
876
1218
421
-647
-532
16
-77
-202
-65
-58
-113
-61
-32
-54
-40
-9
0
9
28
47
68
94
124
164
204
233
261
292
306
292
254
188
106
37
-14
-51
-87
-113
-122
-127
-134
-127
-108
-98
-94
-80
-63
-51
-47
-40
-28
-14
-7
0
9
7
-18
-35
-18
-2
-9
-21
-28
-21
-11
-7
-7
-14
-14
-7
-2
-14
-28
-35
-35
-35
-32
-25
-16
-16
-16
-7
2
7
7
14
23
28
28
40
54
51
47
58
77
84
80
89
101
91
77
82
94
84
73
84
94
94
96
101
101
82
25
87
558
1234
1239
197
-567
-134
256
58
44
179
139
120
171
155
120
141
143
117
134
155
139
124
148
193
226
254
296
332
346
351
341
294
212
127
56
-14
-77
-110
-113
-122
-136
-129
-110
-108
-108
-94
-80
-73
-73
-73
-70
-82
-103
-103
-101
-108
-94
-70
-56
-54
-49
-37
-21
-9
-9
-2
7
4
16
35
37
37
54
61
51
49
65
84
89
77
58
56
70
77
75
70
42
7
16
42
37
32
51
80
87
70
61
63
61
58
77
94
84
75
77
82
77
49
-16
87
614
1215
956
-195
-697
-106
153
-75
-14
98
32
28
80
73
75
106
117
117
139
164
183
207
245
282
310
346
393
426
435
440
424
367
275
197
146
80
2
-28
-28
-40
-58
-56
-42
-40
-37
-23
-21
-35
-25
-4
-14
-35
-32
-21
-18
-14
2
18
23
21
30
47
54
54
54
56
56
58
65
70
58
37
25
30
23
9
11
11
-4
-9
-2
-4
0
11
11
11
28
28
11
2
4
9
18
25
23
25
35
37
37
11
-51
75
645
1227
829
-353
-673
-47
108
-96
7
101
35
44
89
87
94
117
124
134
155
171
190
221
230
200
188
237
287
303
322
334
306
249
181
106
30
-32
-61
-75
-87
-89
-84
-80
-80
-70
-56
-51
-63
-70
-58
-49
-56
-65
-63
-70
-84
-80
-68
-65
-73
-75
-68
-63
-68
-68
-75
-106
-124
-117
-103
-103
-106
-101
-96
-98
-101
-87
-70
-77
-80
-51
-40
-58
-65
-58
-44
-35
-28
-11
-2
-2
2
16
0
-63
30
551
1199
1038
-80
-664
-122
146
-91
-30
106
37
28
94
91
87
120
141
146
157
179
204
230
256
289
329
367
398
431
457
457
424
369
294
204
124
51
-23
-77
-91
-96
-108
-117
-110
-101
-94
-89
-82
-70
-65
-63
-51
-37
-28
-25
-23
-14
-4
-2
7
18
18
18
30
40
44
44
40
30
25
28
40
47
18
-18
2
30
16
4
14
21
23
32
42
49
47
49
63
56
-4
21
438
1119
1215
226
-624
-233
226
44
14
150
103
56
94
87
80
110
131
131
139
160
181
200
221
254
292
303
308
336
369
367
339
296
221
129
61
14
-37
-82
-101
-108
-124
-139
-146
-139
-131
-129
-122
-110
-110
-108
-98
-84
-80
-82
-80
-73
-84
-117
-120
-103
-103
-106
-94
-84
-84
-84
-84
-80
-77
-70
-65
-65
-61
-51
-61
-68
-68
-84
-96
-80
-65
-65
-51
-42
-42
-37
-68
-94
190
852
1218
487
-584
-482
131
75
-68
89
124
63
98
131
117
134
157
153
157
176
190
214
252
278
303
353
391
400
417
438
431
388
320
242
176
122
80
49
9
-30
-40
-32
-28
-23
-16
-7
4
-2
-9
-11
-28
-32
-21
-21
-37
-63
-73
-54
-47
-61
-56
-47
-61
-61
-40
-25
-18
-21
-25
-16
-2
-4
-4
0
4
14
21
25
32
32
35
32
21
-28
-58
207
831
1175
457
-588
-468
155
106
-25
124
139
82
127
148
139
153
164
179
209
219
216
242
280
308
336
372
402
424
433
428
409
358
256
146
77
9
-89
-141
-134
-131
-139
-122
-106
-113
-110
-87
-65
-63
-70
-58
-35
-23
-21
-7
2
-2
0
16
28
32
18
2
7
16
18
23
18
7
9
16
16
14
7
-4
-9
-9
-9
-11
-23
-47
-56
-77
-155
-129
301
940
902
-143
-841
-329
70
-148
-153
-14
-65
-84
-21
-16
-23
2
9
-2
11
35
58
77
80
82
124
169
190
216
245
249
226
181
122
63
14
-21
-44
-65
-73
-65
-68
-75
-68
-56
-47
-37
-25
-11
2
9
14
32
47
49
51
58
65
70
75
82
87
80
73
89
106
101
87
94
106
98
96
106
98
84
89
103
101
101
108
110
106
61
-9
162
765
1265
751
-374
-534
89
164
-25
68
103
32
70
108
84
96
129
134
143
167
181
186
197
223
259
285
296
310
322
313
292
263
202
120
58
16
-23
-58
-77
-82
-80
-80
-70
-61
-58
-58
-44
-28
-21
-18
-16
-16
-35
-68
-75
-61
-61
-63
-47
-35
-40
-42
-30
-14
-14
-42
-49
-28
-30
-42
-25
-16
-18
-14
-4
-4
-2
7
16
16
-11
-80
-21
433
1057
975
-106
-777
-254
113
-103
-91
42
-9
-25
30
28
18
42
51
54
75
96
108
124
157
193
221
252
280
294
299
299
282
233
162
94
40
-9
-44
-54
-56
-63
-63
-49
-35
-32
-28
-14
-11
-32
-47
-35
-23
-30
-35
-32
-30
-37
-47
-44
-37
-37
-42
-37
-25
-23
-28
-25
-18
-21
-28
-21
-25
-54
-61
-37
-30
-37
-28
-9
-2
-7
-51
-87
193
845
1185
435
-593
-438
160
82
-40
115
129
68
108
136
129
148
167
157
167
195
212
228
256
287
310
339
372
391
398
391
358
294
223
162
106
54
11
-7
-14
-16
-18
-18
-16
-7
0
9
18
21
21
23
25
30
37
37
40
47
56
65
58
25
0
9
28
28
23
21
30
35
18
14
7
-32
-56
-44
-42
-58
-65
-58
-58
-65
-113
-181
14
624
1090
532
-579
-652
-2
32
-150
-16
42
-21
2
16
-21
-4
32
37
42
68
89
106
136
174
200
221
247
273
289
289
268
216
143
77
21
-30
-73
-96
-106
-115
-124
-117
-108
-110
-110
-91
-75
-70
-65
-56
-47
-56
-75
-61
-40
-44
-35
-7
-4
-14
-2
9
16
16
7
14
32
30
25
37
42
42
56
70
65
65
77
87
96
82
4
-65
169
789
1156
471
-600
-532
106
65
-101
47
77
9
49
77
47
61
89
94
106
131
155
171
193
226
266
301
327
339
348
353
341
299
233
162
106
65
30
4
-4
-11
-14
-7
0
4
-2
-11
-9
-18
-40
-30
-9
-14
-9
14
23
25
28
37
44
44
42
54
58
35
18
32
47
37
35
47
47
47
58
68
65
63
65
65
56
32
-35
16
482
1123
1038
-25
-659
-127
228
7
14
139
84
54
70
37
25
51
47
40
63
87
98
120
150
174
197
230
254
256
242
230
212
162
94
37
-11
-70
-134
-153
-146
-164
-200
-197
-176
-171
-169
-153
-162
-186
-176
-150
-139
-134
-127
-120
-113
-106
-101
-91
-94
-108
-106
-84
-82
-96
-84
-68
-70
-70
-58
-47
-37
-35
-23
-4
4
9
18
23
-21
-80
131
758
1234
671
-440
-506
127
153
-18
117
167
91
115
155
141
139
150
157
169
183
193
200
212
228
252
285
303
310
320
315
268
202
134
44
-28
-58
-77
-103
-117
-115
-108
-101
-96
-94
-91
-87
-75
-58
-42
-30
-25
-16
-4
4
11
23
32
30
32
40
47
51
61
63
54
63
77
77
75
77
80
87
96
98
98
91
77
77
84
44
-14
193
815
1274
680
-424
-459
169
171
0
146
193
115
139
179
167
174
190
179
160
136
117
136
174
193
204
228
245
235
235
247
228
174
108
47
-21
-98
-148
-148
-148
-157
-150
-139
-136
-129
-113
-98
-87
-75
-63
-51
-42
-30
-14
-7
-9
-2
11
21
16
9
9
21
30
28
30
44
49
44
51
58
58
61
68
73
73
80
94
96
80
18
0
315
968
1227
388
-605
-355
216
91
0
150
127
70
108
89
68
103
115
117
150
179
186
202
226
245
270
301
325
325
315
318
292
226
148
77
21
-23
-58
-75
-82
-91
-98
-96
-94
-98
-96
-87
-77
-68
-54
-32
-21
-18
-14
-4
4
14
16
18
28
30
32
49
58
42
30
47
56
32
11
21
37
30
21
25
23
14
18
37
21
-56
2
485
1088
888
-233
-751
-127
181
-51
4
134
68
63
122
113
108
146
162
160
181
204
223
245
275
308
329
339
355
376
372
343
303
230
139
63
11
-32
-73
-87
-82
-84
-84
-87
-91
-77
-61
-63
-58
-44
-44
-37
-21
-16
-32
-40
-25
-23
-35
-37
-23
-16
-42
-63
-49
-32
-40
-44
-32
-25
-28
-21
-7
4
0
0
25
30
21
21
-35
-63
261
876
989
58
-746
-308
193
4
-42
113
80
40
87
106
110
124
129
148
176
190
204
237
268
289
325
369
388
388
381
365
327
263
181
110
47
-16
-61
-101
-134
-134
-141
-155
-148
-134
-122
-113
-120
-122
-91
-68
-70
-61
-44
-30
-30
-25
-2
9
-4
-11
14
42
30
16
32
35
21
30
44
32
0
-16
0
-7
-30
-11
11
-9
-75
-73
278
923
1104
230
-657
-332
193
47
-23
134
113
65
124
143
122
143
169
171
181
204
226
242
261
275
292
310
325
343
360
346
303
245
171
96
30
-16
-51
-84
-103
-101
-98
-101
-94
-84
-87
-84
-68
-56
-51
-44
-37
-28
-23
-18
-4
7
2
-7
-9
0
16
21
7
-2
-11
-37
-37
-21
-28
-30
-9
0
0
7
14
18
21
9
-49
-21
405
1069
1062
9
-704
-221
155
-54
-65
47
-2
-18
30
40
44
68
84
96
117
134
153
188
223
252
282
318
351
367
374
367
332
259
176
108
56
9
-30
-54
-68
-84
-96
-106
-113
-110
-98
-87
-80
-77
-73
-63
-54
-49
-40
-32
-58
-91
-84
-61
-61
-68
-61
-49
-32
-23
-25
-23
-11
-9
-4
7
9
9
14
2
-21
-23
-7
2
-4
-25
-80
35
586
1229
996
-155
-643
-58
183
-37
23
131
77
77
129
124
122
143
155
169
193
204
216
242
278
303
327
362
388
398
402
395
358
278
188
117
70
23
-16
-40
-61
-82
-84
-75
-70
-75
-70
-63
-75
-101
-101
-82
-84
-89
-73
-56
-54
-61
-70
-82
-96
-91
-73
-63
-70
-70
-51
-32
-30
-37
-28
-7
-4
-7
4
9
7
14
30
37
37
42
51
54
28
-30
84
629
1258
1024
-136
-654
-65
190
-35
25
139
80
84
134
120
117
153
160
157
179
197
209
235
273
301
308
303
327
358
351
320
285
209
89
-9
-70
-127
-179
-214
-240
-247
-237
-228
-219
-212
-207
-195
-179
-169
-164
-155
-143
-136
-129
-115
-103
-106
-110
-94
-80
-82
-80
-70
-70
-73
-68
-61
-77
-101
-89
-65
-68
-73
-49
-37
-54
-61
-44
-32
-25
-23
-14
2
14
16
23
14
-42
16
482
1154
1149
84
-671
-186
223
14
21
169
103
65
134
150
134
139
141
150
169
183
204
216
230
266
308
329
329
329
339
322
254
167
98
30
-42
-82
-96
-108
-120
-124
-124
-113
-101
-98
-94
-87
-80
-65
-47
-35
-30
-23
-11
2
14
25
28
30
40
54
61
54
58
77
70
63
73
84
87
84
98
106
103
110
106
80
73
77
82
91
89
73
63
75
84
80
63
7
58
508
1156
1119
51
-680
-167
259
42
42
202
148
87
115
110
94
110
124
124
127
131
136
148
176
214
237
266
303
296
263
261
242
171
98
44
-9
-56
-87
-113
-120
-117
-108
-101
-108
-103
-77
-75
-87
-70
-44
-44
-65
-61
-40
-32
-30
-21
-11
-11
-25
-37
-32
-25
-25
-23
-16
-18
-30
-25
-4
-7
-25
-16
0
-9
-18
-11
-18
-51
-70
-56
-40
-49
-61
-44
-42
-106
-91
306
968
1071
108
-742
-339
157
-25
-65
101
63
14
68
73
47
58
82
96
113
122
146
176
202
240
280
308
339
360
365
365
334
266
193
131
73
21
-28
-77
-94
-77
-70
-65
-56
-49
-44
-37
-28
-16
-7
-2
11
30
42
47
54
61
68
75
75
65
61
61
65
73
63
25
11
25
32
32
35
40
51
51
51
61
58
58
70
77
70
75
89
96
94
75
18
40
447
1137
1243
209
-706
-315
167
-35
-87
68
35
-4
49
49
16
21
40
54
73
94
108
131
164
200
237
280
315
336
346
348
329
275
197
122
58
2
-32
-42
-61
-98
-115
-96
-82
-82
-75
-61
-65
-89
-98
-80
-65
-70
-61
-42
-35
-32
-23
-16
-16
-14
-4
4
4
-2
0
7
14
11
-2
-7
2
9
7
9
7
0
4
11
11
-7
-35
-51
-49
-58
-120
-148
164
850
1187
376
-718
-577
14
-84
-209
-44
-25
-84
-44
-28
-44
-16
11
21
42
65
82
115
155
190
226
268
308
336
355
365
346
266
157
91
47
-7
-47
-61
-70
-73
-65
-51
-42
-42
-37
-32
-32
-25
-11
-4
-2
4
16
30
32
32
40
54
63
61
42
35
44
49
56
65
61
56
70
84
73
73
94
89
65
61
68
54
30
21
21
14
7
11
16
-2
-70
-32
412
1109
1189
160
-697
-285
171
-18
-42
103
58
30
98
106
87
110
131
136
153
176
195
202
223
266
306
313
308
329
355
355
325
273
202
124
61
23
-7
-32
-54
-68
-70
-65
-56
-40
-44
-82
-89
-56
-47
-47
-32
-23
-18
-14
-11
0
9
9
11
21
23
25
37
37
30
25
21
23
23
2
-7
-4
-16
-30
-35
-35
-35
-35
-35
-40
-47
-49
-42
-35
-65
-141
-28
539
1137
803
-362
-763
-143
61
-162
-96
-28
-96
-77
-42
-58
-42
-16
-21
-18
9
42
65
101
143
181
219
261
299
327
341
336
294
209
131
77
21
-28
-47
-51
-58
-58
-49
-37
-35
-35
-21
-4
7
16
16
23
44
51
54
70
82
77
80
96
110
106
89
82
73
47
37
47
47
28
4
11
28
14
0
7
9
14
28
23
-4
-23
-14
-11
-37
-84
-139
-32
475
1088
899
-216
-768
-171
157
-56
-16
101
47
47
101
98
98
127
139
146
169
204
230
242
273
320
358
391
426
449
440
428
402
332
245
176
131
94
42
11
28
25
-9
-16
11
28
18
25
40
28
23
44
58
61
58
68
84
80
73
84
91
54
7
-7
-14
-25
-30
-32
-58
-94
-103
-103
-108
-108
-108
-115
-113
-98
-91
-89
-80
-73
-63
-73
-136
-47
471
1062
817
-282
-744
-131
148
-80
-7
124
37
25
113
117
101
124
139
141
167
200
209
219
249
285
329
376
398
405
412
407
365
294
216
146
82
42
21
4
-7
0
2
-11
-18
-21
-23
-25
-18
-7
2
7
14
23
18
-14
-42
-21
-2
-11
-11
9
18
16
16
21
21
14
0
7
18
-2
-23
-28
-35
-47
-35
-14
-21
-40
-28
-4
-7
-25
-80
-77
266
909
1088
200
-702
-388
139
-4
-75
89
75
23
77
101
84
98
113
127
150
167
188
216
240
273
308
320
351
395
395
372
360
313
223
139
75
25
-11
-23
-23
-37
-47
-35
-23
-42
-70
-58
-35
-37
-37
-23
-16
-11
0
14
25
25
23
32
40
40
51
61
51
47
47
42
42
49
42
30
23
16
14
0
-23
-68
-94
-75
-63
-73
-65
-58
-77
-146
-124
285
951
1062
122
-730
-386
68
-98
-134
9
-28
-58
-7
-4
-16
4
21
32
49
73
89
103
136
181
216
256
292
313
320
318
289
233
150
63
0
-40
-91
-148
-167
-162
-162
-162
-155
-148
-150
-150
-131
-113
-110
-98
-77
-65
-68
-63
-37
-18
-21
-23
-11
0
0
9
23
23
21
30
40
47
61
63
40
14
4
4
7
-4
-21
-25
-30
-37
-37
-30
-23
-23
-21
-30
-84
-35
419
1100
1123
91
-683
-252
153
-37
-44
103
63
28
89
106
94
115
134
134
150
176
186
195
214
221
242
296
339
358
379
381
346
282
214
150
87
37
9
-4
-14
-16
-11
-9
-7
2
14
23
25
21
9
-4
-2
7
2
-7
-2
11
23
30
30
30
42
51
51
58
68
68
63
73
87
82
68
61
75
77
56
54
61
40
11
11
16
11
9
4
-16
-51
-68
-54
-54
-108
-193
-141
318
1008
1086
91
-739
-358
84
-89
-122
16
-9
-32
21
30
21
44
58
61
82
108
122
131
146
160
183
221
261
289
306
308
289
237
153
70
11
-32
-73
-98
-106
-117
-124
-117
-106
-101
-101
-98
-87
-80
-77
-70
-58
-58
-56
-42
-23
-16
-23
-28
-16
-4
-2
9
23
23
16
18
25
25
21
14
2
-23
-56
-54
-40
-49
-51
-37
-32
-32
-16
-9
-16
-2
16
11
2
-7
-30
-35
-18
-14
-11
-2
4
9
23
11
-54
14
515
1196
1126
42
-631
-141
197
-9
16
153
96
73
134
141
129
153
171
176
188
207
219
228
252
285
320
362
395
424
447
447
414
360
292
214
146
94
58
32
11
9
9
-16
-47
-40
-16
-16
-16
-7
2
4
9
16
7
-28
-44
-30
-21
-35
-40
-40
-47
-49
-42
-35
-32
-35
-35
-23
-16
-11
-9
-7
-4
-2
9
21
4
-32
-40
-21
-11
-7
-2
2
14
11
2
4
7
2
11
25
25
28
37
37
30
35
16
-32
96
643
1236
937
-207
-626
-30
162
-65
23
136
63
54
96
89
87
106
106
108
110
106
122
153
160
157
186
228
254
275
303
306
256
190
124
51
-16
-61
-89
-115
-139
-134
-117
-117
-136
-143
-127
-120
-134
-141
-141
-134
-120
-108
-101
-103
-96
-75
-61
-56
-51
-37
-23
-23
-23
-9
7
4
-9
2
25
30
23
32
44
42
42
58
70
63
54
63
65
56
70
80
44
14
28
37
32
37
40
40
44
25
9
23
18
-44
-18
379
1024
1133
174
-687
-299
204
37
0
160
124
80
139
136
106
131
157
160
176
207
228
237
259
296
334
365
388
409
421
414
386
332
242
134
58
18
-28
-68
-80
-84
-91
-96
-87
-80
-82
-91
-89
-73
-63
-61
-70
-82
-77
-58
-42
-30
-25
-25
-18
-7
2
0
0
-9
-61
-110
-96
-70
-80
-80
-63
-51
-44
-35
-30
-14
0
-11
-21
-16
-14
-9
2
11
16
23
32
32
32
21
-30
58
563
1173
961
-153
-673
-89
204
-16
32
160
98
84
136
134
127
148
150
139
136
146
162
183
204
219
223
230
259
282
287
289
263
193
113
54
-2
-51
-82
-98
-113
-115
-106
-94
-91
-94
-84
-75
-91
-110
-103
-103
-110
-96
-73
-63
-56
-49
-40
-25
-18
-11
-2
0
0
11
25
25
18
21
37
47
40
49
70
63
49
56
65
65
63
68
68
56
51
63
70
49
-9
28
442
1093
1159
167
-676
-278
193
16
-18
129
91
61
120
120
91
106
122
120
122
136
143
146
164
202
235
256
280
299
294
259
228
193
113
28
-21
-61
-98
-120
-127
-131
-131
-120
-106
-96
-91
-87
-73
-58
-58
-51
-37
-32
-32
-21
-7
2
7
0
-2
4
11
16
25
21
14
23
25
-18
-70
-58
-28
-40
-47
-28
-21
-25
-21
-7
4
4
9
14
16
-11
-70
84
666
1232
834
-339
-664
-32
122
-91
4
91
21
35
75
44
40
70
61
23
16
32
35
42
77
115
141
164
193
214
221
207
171
106
23
-44
-98
-148
-190
-207
-204
-202
-195
-181
-164
-155
-148
-131
-127
-136
-139
-122
-106
-91
-77
-63
-49
-42
-37
-23
-7
0
2
9
16
18
23
40
49
30
25
54
63
54
56
61
65
73
77
84
94
91
91
101
96
35
47
433
1097
1201
200
-666
-254
219
25
-2
157
120
82
141
148
127
139
146
143
148
164
179
186
197
219
247
273
294
301
292
280
259
214
148
73
14
-21
-49
-77
-91
-84
-77
-77
-80
-65
-42
-35
-37
-37
-28
-14
-7
-4
9
21
23
35
47
44
47
61
65
58
58
70
80
77
73
73
82
91
98
94
84
84
96
106
103
96
87
68
16
-32
-54
-101
-2
525
1104
812
-301
-690
-63
155
-68
7
103
30
23
75
82
89
117
129
131
146
174
207
237
256
273
299
325
334
334
332
327
282
195
120
68
9
-47
-80
-77
-75
-91
-96
-82
-84
-82
-65
-54
-44
-35
-25
-14
-4
-2
2
14
25
25
28
35
30
25
44
56
44
42
54
42
23
28
35
9
-21
-16
0
0
-9
-14
-11
-9
-2
-18
-82
40
579
1102
732
-367
-662
0
188
-37
54
157
82
77
139
141
134
153
174
193
204
212
240
275
296
329
369
395
409
428
435
424
379
301
226
167
113
68
40
18
7
-2
-21
-37
-37
-28
-28
-40
-54
-56
-44
-47
-49
-37
-30
-30
-28
-23
-21
-28
-51
-49
-23
-42
-87
-89
-61
-58
-73
-65
-51
-56
-58
-47
-44
-56
-47
-30
-21
-21
-54
-122
0
544
1119
801
-320
-676
-40
162
-54
35
134
65
68
117
113
117
124
91
84
120
136
143
174
197
207
233
278
308
315
318
308
278
214
141
82
35
-7
-30
-37
-40
-47
-51
-54
-70
-82
-70
-58
-75
-101
-103
-82
-75
-77
-73
-63
-61
-65
-65
-65
-70
-65
-61
-77
-89
-82
-91
-110
-117
-127
-136
-139
-141
-143
-131
-122
-124
-122
-127
-186
-204
143
834
1074
197
-742
-438
96
-56
-141
16
7
-40
18
49
35
47
73
89
106
127
150
176
202
233
275
315
341
353
353
334
294
240
174
103
47
7
-14
-25
-42
-61
-68
-70
-91
-106
-89
-73
-75
-61
-40
-28
-25
-18
-4
7
11
18
30
25
18
30
51
58
44
44
61
61
54
65
75
65
63
68
61
51
56
61
63
49
-18
-14
376
1041
1152
195
-643
-261
186
-9
-58
82
47
11
63
63
30
35
47
54
68
89
108
129
164
197
216
235
268
299
306
299
273
207
108
18
-28
-54
-89
-113
-108
-101
-101
-96
-84
-89
-115
-127
-101
-82
-84
-73
-54
-44
-37
-23
-11
-11
-14
-9
7
11
4
11
32
35
23
35
54
44
40
54
61
61
61
63
73
82
84
87
91
49
-32
94
664
1236
843
-306
-579
51
167
-47
65
139
54
65
113
96
91
110
108
103
117
134
143
157
188
228
261
287
301
318
308
261
207
150
70
4
-23
-49
-89
-110
-122
-134
-129
-113
-96
-91
-91
-77
-58
-47
-35
-23
-21
-16
-2
14
23
23
30
37
44
54
54
49
54
65
61
35
28
47
49
40
30
21
30
47
42
44
56
54
58
70
37
-37
65
588
1185
947
-181
-659
-35
240
16
82
193
122
117
162
157
162
183
171
176
202
183
139
139
174
202
230
259
275
285
289
285
249
181
101
32
-14
-47
-75
-89
-89
-94
-103
-84
-65
-77
-75
-47
-44
-63
-65
-42
-23
-32
-40
-18
-7
-2
14
28
16
14
25
35
18
-14
-18
-7
-14
-14
11
18
9
7
16
18
21
30
37
40
37
37
47
30
-40
28
525
1147
947
-193
-725
-131
129
-120
-44
84
-2
-11
56
51
37
65
80
70
73
96
117
122
134
164
193
212
226
240
230
188
129
61
-21
-94
-143
-174
-197
-209
-207
-195
-188
-186
-171
-148
-139
-139
-127
-101
-84
-77
-63
-47
-35
-25
-11
4
14
16
23
32
40
42
47
40
23
28
47
49
44
56
65
61
61
65
75
73
44
21
37
54
49
51
49
-4
4
391
1083
1267
325
-619
-289
233
68
-4
129
87
35
98
120
103
120
139
143
146
160
181
195
209
233
263
289
308
322
334
334
303
242
167
96
32
-9
-32
-51
-68
-75
-68
-58
-61
-63
-54
-47
-44
-37
-21
-14
-11
-7
4
11
14
23
35
32
30
42
54
54
54
58
58
37
11
21
40
28
14
35
56
42
16
-2
-11
-30
-47
-32
-16
-21
-16
2
9
-23
-75
91
690
1276
899
-273
-621
-11
155
-47
49
139
75
87
131
117
115
136
139
134
141
141
146
162
181
209
242
275
306
327
332
310
270
207
129
63
16
-28
-61
-70
-68
-68
-70
-70
-58
-49
-42
-32
-23
-40
-70
-68
-49
-61
-80
-82
-68
-56
-51
-37
-25
-25
-21
-7
4
7
7
11
21
25
30
42
49
44
44
58
75
73
68
84
94
77
73
77
77
65
68
80
84
84
87
89
77
28
2
285
940
1316
593
-511
-459
141
91
-61
73
82
9
47
73
47
61
89
84
94
120
134
146
164
195
230
252
261
289
318
320
306
270
186
75
2
-32
-68
-103
-115
-113
-110
-108
-94
-82
-77
-73
-56
-40
-35
-32
-23
-9
-4
-7
-7
-4
-4
-2
11
23
25
30
37
37
37
47
58
61
58
61
73
73
65
77
94
89
77
94
110
96
75
70
80
63
18
-4
-7
-14
-18
-25
-37
-103
-150
148
829
1168
381
-702
-574
28
-35
-153
2
4
-56
0
23
-28
-32
0
9
14
40
68
84
110
146
179
197
221
261
287
282
261
221
148
65
0
-51
-94
-127
-143
-143
-141
-146
-141
-124
-113
-110
-106
-96
-89
-77
-63
-42
-23
-23
-21
0
18
14
9
16
23
28
37
47
35
2
4
32
37
35
32
23
23
40
49
40
30
28
11
-2
-9
-9
-4
-11
-42
-54
-32
-18
-25
-35
-58
-108
7
541
1154
881
-285
-737
-94
155
-82
2
134
56
49
120
122
115
134
148
167
190
202
223
252
282
318
362
398
417
428
431
414
384
325
240
171
115
65
28
-11
-49
-49
-32
-32
-28
-14
-14
-16
-9
2
16
21
25
42
58
70
70
65
70
75
65
61
61
49
28
18
16
-21
-63
-58
-42
-54
-56
-42
-37
-32
-32
-30
-32
-40
-37
-32
-42
-63
-68
-56
-47
-42
-35
-68
-106
129
753
1170
534
-584
-610
47
68
-103
47
103
30
61
103
73
56
80
103
124
141
157
183
214
245
285
327
369
398
409
414
402
358
280
209
150
80
25
9
-4
-28
-32
-14
-2
-4
-4
2
-9
-37
-37
-14
-18
-42
-35
-2
-7
-25
-14
-9
-28
-30
-23
-18
-21
-25
-25
-9
-4
-18
-25
-18
-16
-21
-7
7
4
-2
-2
0
9
14
-7
-30
-14
2
2
11
-21
-84
96
690
1189
727
-384
-614
14
148
-44
63
134
51
61
108
106
113
131
134
148
174
195
212
240
275
296
327
372
398
405
391
353
318
263
171
96
49
4
-25
-30
-28
-40
-47
-37
-37
-51
-56
-51
-44
-44
-54
-54
-42
-44
-65
-63
-42
-42
-58
-77
-84
-73
-61
-56
-54
-49
-51
-49
-37
-21
-11
-18
-23
-7
4
0
-11
-25
-23
-4
2
-2
14
30
18
14
18
-40
-56
296
958
1128
223
-678
-365
141
-11
-75
91
80
30
82
103
89
108
131
141
155
162
169
193
214
219
233
280
318
334
353
369
343
280
214
153
84
16
-30
-49
-58
-63
-58
-58
-68
-68
-56
-51
-61
-65
-63
-68
-68
-61
-70
-73
-63
-65
-61
-47
-37
-35
-28
-28
-30
-23
-11
-11
-16
-7
9
2
-4
16
25
14
11
21
30
32
35
40
44
49
51
49
30
-32
-30
346
1043
1269
362
-607
-341
153
-14
-82
80
54
4
70
84
49
63
89
91
103
129
153
174
197
230
273
313
343
369
381
367
341
296
228
150
84
37
7
-14
-28
-40
-49
-54
-49
-42
-44
-54
-61
-63
-65
-63
-58
-51
-51
-51
-44
-32
-30
-35
-32
-23
-23
-30
-25
-14
-14
-16
-11
-2
7
14
11
14
28
37
32
28
4
-25
-21
-9
-30
-47
-32
-21
-21
-11
-30
-84
49
619
1227
916
-237
-650
-63
120
-122
-61
51
-4
-9
42
49
51
75
87
98
117
134
153
186
216
240
278
325
353
372
388
381
343
278
209
148
87
25
-16
-35
-49
-61
-58
-56
-65
-70
-61
-65
-80
-77
-68
-63
-61
-54
-44
-44
-47
-40
-44
-65
-73
-61
-56
-68
-89
-91
-75
-89
-120
-124
-117
-113
-101
-96
-91
-70
-58
-56
-51
-49
-44
-28
-14
-9
-2
4
11
16
18
-14
-47
202
843
1260
596
-501
-485
127
106
-42
103
131
49
70
110
106
115
134
143
155
171
188
209
240
270
296
329
365
391
407
414
395
348
270
176
103
51
7
-18
-28
-37
-37
-32
-42
-56
-51
-42
-54
-87
-110
-103
-96
-101
-98
-91
-89
-82
-73
-70
-65
-58
-56
-51
-47
-54
-47
-30
-32
-30
-18
-16
-9
-2
-9
2
16
4
-2
2
7
11
16
21
30
37
35
35
42
7
-25
221
838
1229
574
-515
-497
139
127
-32
108
127
42
84
108
82
106
122
87
77
98
113
129
167
209
242
268
301
336
332
301
287
263
183
98
58
18
-37
-65
-63
-65
-77
-70
-51
-51
-58
-44
-28
-37
-47
-40
-40
-56
-63
-54
-51
-61
-63
-56
-42
-28
-42
-58
-32
-21
-40
-32
-9
-14
-25
-11
2
-2
-4
0
0
-2
-11
-18
-9
-2
7
4
-7
-11
-42
-80
153
768
1130
449
-593
-530
101
94
-44
96
122
58
96
129
127
146
153
148
160
183
183
171
195
240
275
310
346
367
376
367
336
292
233
167
106
47
7
-9
-18
-32
-37
-25
-16
-21
-23
-7
7
0
2
21
30
32
35
32
32
30
16
9
11
0
-30
-42
-25
-23
-35
-37
-35
-28
-25
-30
-28
-28
-32
-25
-16
-14
-11
-7
-4
7
16
-11
-75
28
541
1090
779
-315
-673
-47
141
-117
-37
87
4
-11
56
61
44
68
101
115
127
141
169
207
237
254
289
339
365
372
374
351
282
193
124
65
9
-32
-56
-80
-106
-108
-106
-122
-120
-96
-87
-89
-82
-68
-61
-54
-40
-25
-23
-23
-21
-4
7
4
-2
-9
-18
-28
-30
-23
-28
-65
-94
-84
-77
-91
-96
-101
-117
-134
-129
-115
-117
-124
-120
-117
-136
-200
-252
-21
603
1055
478
-619
-692
-75
-32
-186
-51
-2
-61
-18
23
11
28
65
75
80
101
113
103
117
164
200
228
268
308
327
332
318
278
216
148
89
47
11
-14
-21
-14
-14
-16
-9
2
11
16
25
37
40
40
56
70
75
73
63
63
73
75
82
89
77
73
84
101
89
63
63
65
25
-9
-2
-7
-32
-32
-14
-14
-18
-11
-7
-9
-25
-84
-16
464
1114
1005
-103
-763
-237
108
-110
-84
54
7
-4
54
49
47
80
94
101
124
146
157
183
223
259
292
322
351
374
384
374
343
278
195
129
73
16
-21
-35
-42
-40
-35
-25
-16
-14
-11
0
7
-11
-37
-32
-16
-11
-7
7
9
-18
-44
-30
-11
-14
-11
-2
-2
2
21
30
14
2
-4
-23
-30
-21
-21
-30
-37
-40
-42
-40
-37
-42
-35
-40
-103
-84
332
1010
1100
120
-699
-294
148
-44
-68
89
51
14
75
87
70
84
103
115
127
141
162
193
221
252
294
327
348
372
393
391
358
296
223
155
96
56
30
2
-11
-4
2
2
2
9
11
-4
-37
-44
-28
-25
-40
-44
-30
-21
-21
-14
-4
-2
4
18
23
18
23
32
37
42
51
44
42
56
65
54
42
28
25
35
30
18
4
-11
-25
-23
-16
-51
-108
82
690
1182
647
-487
-605
32
77
-108
28
91
16
40
91
77
75
103
120
127
141
167
190
219
247
275
306
327
336
353
367
351
287
204
139
80
18
-16
-35
-73
-108
-108
-91
-91
-87
-68
-63
-61
-42
-28
-25
-23
-9
11
23
11
11
35
44
28
23
40
37
0
-21
-7
4
-2
7
23
18
11
28
40
37
35
32
18
16
25
25
9
2
0
-2
-11
-70
-103
193
834
1114
313
-699
-497
103
11
-94
56
28
-44
14
54
35
44
77
91
98
124
153
160
155
171
216
256
275
301
336
341
306
261
200
115
40
-2
-32
-56
-77
-84
-73
-61
-58
-49
-40
-40
-25
-9
-11
-7
18
28
23
35
54
61
63
65
63
70
82
82
84
80
68
75
96
77
47
54
68
70
70
65
56
47
30
16
21
25
21
16
14
-9
-80
-61
339
951
932
-68
-777
-294
129
-68
-68
73
-11
-61
14
4
-30
9
40
40
61
89
108
134
160
197
249
278
294
327
348
329
294
242
169
103
51
9
-14
-32
-47
-44
-35
-37
-37
-25
-18
-28
-25
-9
4
9
16
25
35
42
40
25
14
21
30
42
42
28
25
47
56
49
47
61
63
44
49
68
63
44
40
56
63
51
49
49
-7
-87
-146
-87
336
940
859
-179
-822
-299
75
-134
-122
18
-28
-44
7
7
9
42
56
61
77
94
117
150
181
214
249
270
278
299
320
318
280
212
136
82
37
-4
-40
-75
-101
-101
-89
-80
-73
-68
-61
-47
-32
-25
-21
-14
-2
4
16
30
37
35
40
42
32
32
40
32
32
47
61
58
47
47
56
58
37
4
4
21
18
18
30
37
40
42
47
11
-47
124
723
1229
718
-433
-617
0
58
-146
-23
44
-28
-4
42
21
21
51
68
73
77
73
82
115
146
183
226
254
273
296
310
296
249
183
115
51
4
-21
-44
-73
-89
-77
-65
-65
-61
-49
-40
-32
-23
-11
-4
-4
2
16
25
28
32
37
23
-2
-11
0
2
0
16
23
11
18
35
30
30
35
25
28
37
32
35
49
51
54
61
23
-47
106
687
1234
808
-353
-638
-23
94
-124
-35
23
-77
-77
-18
-25
-32
-9
7
16
35
47
56
77
110
150
195
228
252
268
278
263
216
148
77
7
-44
-73
-94
-110
-117
-117
-115
-110
-103
-91
-84
-87
-82
-68
-63
-61
-58
-68
-94
-120
-120
-106
-106
-113
-103
-91
-89
-91
-89
-80
-70
-65
-70
-56
-42
-61
-75
-58
-44
-44
-32
-21
-21
-9
7
14
14
-2
-58
-16
417
1067
1043
-16
-732
-240
143
-80
-89
49
2
-21
35
42
35
54
65
77
103
124
139
162
195
230
266
303
334
348
353
353
327
263
179
106
56
14
-14
-25
-40
-77
-96
-77
-61
-61
-54
-40
-30
-23
-11
0
-9
-30
-23
0
4
7
18
25
28
32
42
51
54
47
42
54
54
47
61
70
56
54
70
77
77
77
80
87
91
96
101
96
44
-28
157
765
1265
742
-414
-577
56
122
-70
42
96
21
30
58
44
54
80
89
101
122
141
155
181
214
245
261
261
268
289
278
230
190
124
18
-54
-80
-103
-127
-136
-141
-139
-120
-103
-101
-110
-120
-101
-73
-58
-58
-54
-35
-25
-18
-4
11
21
25
28
37
47
49
51
51
49
58
73
77
73
75
84
84
77
84
96
87
65
68
91
101
91
84
82
54
-14
68
565
1161
940
-197
-720
-122
164
-68
-4
120
37
25
77
25
-23
7
30
35
61
82
94
122
155
188
235
270
285
308
329
318
275
219
153
84
32
2
-23
-49
-56
-47
-40
-32
-28
-28
-23
-9
0
14
23
21
32
51
56
54
44
42
51
58
63
70
70
73
70
73
80
84
87
80
70
77
91
94
84
80
91
94
84
80
70
49
44
58
35
-44
47
558
1126
817
-367
-834
-186
70
-181
-103
35
-44
-63
2
4
-4
23
49
58
73
89
122
162
190
212
247
289
315
329
343
339
292
223
153
75
7
-32
-56
-82
-117
-134
-115
-98
-103
-98
-82
-77
-73
-54
-37
-35
-30
-11
4
4
4
16
30
28
14
7
7
2
0
14
23
4
-14
0
14
0
-2
7
-7
-37
-51
-40
-30
-37
-40
-30
-28
-63
-124
9
567
1137
765
-398
-746
-131
28
-193
-103
-14
-84
-75
-30
-51
-54
-18
-4
0
25
51
70
98
139
179
207
240
275
299
303
292
254
193
122
65
23
-11
-42
-54
-54
-70
-87
-77
-61
-56
-51
-49
-44
-37
-32
-23
-2
9
9
18
28
28
32
44
54
49
44
49
63
73
68
63
63
44
16
25
42
32
32
47
54
56
58
56
47
42
23
-35
65
600
1234
1005
-146
-647
-54
193
-51
-2
108
35
21
68
61
54
77
89
98
117
131
141
153
164
193
233
266
280
285
294
292
254
181
108
54
7
-32
-56
-68
-75
-73
-63
-51
-44
-47
-37
-18
-9
-7
2
11
16
23
35
44
44
40
40
49
49
44
47
40
-9
-56
-42
-25
-44
-42
-18
-18
-21
-11
0
0
0
9
18
23
21
23
30
-2
-68
87
678
1243
812
-386
-690
-47
77
-164
-70
11
-77
-75
-25
-42
-49
-16
-4
-7
7
25
42
65
98
129
160
190
216
237
252
242
202
131
56
-7
-49
-75
-98
-120
-129
-129
-120
-106
-94
-87
-101
-124
-113
-80
-73
-73
-51
-32
-25
-16
-2
7
11
23
37
42
37
42
61
68
61
54
75
96
68
32
42
51
35
30
49
63
63
68
82
77
44
-14
89
607
1213
970
-176
-650
-25
230
-7
47
146
68
58
108
96
84
108
117
120
143
162
153
164
214
254
280
315
343
358
362
351
315
247
167
101
51
2
-54
-84
-77
-77
-84
-75
-49
-40
-42
-35
-25
-21
-11
7
21
14
-2
11
40
32
21
35
51
58
61
56
56
68
73
68
65
61
58
73
80
73
73
75
58
32
28
40
49
47
9
-54
94
659
1187
753
-405
-666
14
162
-75
25
101
2
14
73
58
54
73
82
96
120
136
155
183
204
212
230
273
303
303
303
299
256
181
101
11
-68
-106
-113
-117
-124
-127
-117
-106
-96
-80
-68
-68
-61
-44
-30
-18
-11
-2
11
23
28
40
49
51
51
56
61
65
65
70
63
44
47
54
51
51
49
51
63
68
65
65
73
80
80
80
42
-18
181
817
1305
725
-428
-532
110
146
-44
77
117
4
-9
30
23
11
23
23
11
16
44
73
98
124
157
202
240
263
275
280
263
212
143
80
21
-32
-63
-70
-80
-87
-80
-73
-70
-65
-49
-35
-30
-40
-35
-16
-7
-4
4
14
16
23
35
42
40
37
47
51
44
47
63
68
49
49
73
77
63
61
70
73
73
80
84
87
84
80
77
70
4
-32
294
989
1258
386
-619
-412
96
-30
-115
0
-49
-103
-51
-49
-65
-35
-16
-21
-4
25
47
65
96
134
169
204
235
249
254
249
223
171
98
25
-30
-75
-108
-127
-129
-124
-127
-131
-122
-106
-101
-101
-89
-82
-82
-77
-65
-56
-56
-58
-51
-42
-42
-40
-42
-56
-68
-63
-51
-47
-58
-75
-75
-61
-65
-63
-37
-35
-42
-30
-16
-14
-16
-9
0
-9
-35
-30
-9
-25
-89
-63
351
1043
1192
219
-692
-343
143
-25
-77
63
28
-14
32
40
28
49
63
65
84
110
129
146
176
219
259
292
325
348
355
348
322
275
209
127
63
30
4
-25
-44
-47
-47
-44
-30
-7
-9
-30
-32
-11
0
2
7
18
25
30
42
58
58
54
61
73
73
82
94
77
40
28
37
42
37
28
23
44
58
49
42
47
47
54
65
75
77
80
75
75
82
70
9
122
673
1267
935
-240
-640
-14
181
-51
25
115
37
37
82
61
51
75
84
87
101
122
141
160
162
150
174
228
259
275
292
285
233
167
96
23
-30
-68
-91
-94
-96
-106
-106
-98
-96
-91
-82
-77
-84
-77
-68
-77
-96
-98
-87
-80
-70
-49
-44
-47
-42
-37
-32
-25
-25
-28
-21
-23
-28
-16
-11
-16
-9
-7
-18
-16
-11
-7
-7
-21
-21
0
4
2
11
16
-32
-73
200
826
1142
381
-687
-563
61
-14
-153
21
40
-37
14
56
40
47
70
84
103
124
146
171
202
235
263
296
332
358
369
374
355
303
228
148
61
-16
-47
-49
-68
-84
-70
-54
-54
-47
-30
-28
-30
-16
4
14
14
23
37
47
49
51
47
47
51
58
68
73
73
75
77
77
77
73
49
32
47
65
63
58
56
56
61
65
68
75
82
75
63
61
30
-23
153
749
1272
789
-409
-666
-25
82
-122
-4
73
-2
16
63
47
51
80
94
101
113
131
157
169
167
195
242
273
296
325
339
322
268
195
113
14
-65
-94
-113
-134
-134
-117
-110
-108
-101
-84
-68
-63
-75
-77
-68
-61
-51
-37
-25
-23
-21
-11
-2
-2
4
11
9
4
7
16
21
9
-4
2
18
14
9
11
2
0
11
16
11
9
9
0
-11
-35
-96
-42
428
1102
1029
-98
-791
-266
84
-143
-117
23
-23
-42
4
-2
-7
9
-7
-7
28
49
65
101
146
179
212
254
292
303
301
299
270
200
124
68
16
-30
-56
-63
-68
-68
-58
-47
-42
-40
-37
-42
-40
-23
-11
-2
9
11
23
42
44
40
49
63
68
70
77
82
82
84
96
106
91
82
98
103
101
108
106
101
108
113
110
101
82
68
75
68
-4
-2
400
1079
1152
106
-756
-334
122
-77
-96
56
0
-42
21
35
23
47
68
77
89
113
143
164
193
240
268
287
318
346
353
343
315
263
193
122
58
16
-11
-30
-35
-30
-25
-23
-23
-18
-14
-11
2
16
-4
-35
-23
2
0
-7
11
28
28
23
30
44
37
28
44
68
63
51
54
61
61
68
70
63
35
2
0
0
-18
-30
-18
-21
-70
-131
54
657
1109
511
-614
-666
11
28
-171
-4
51
-37
7
51
21
40
87
87
87
115
143
164
195
237
278
308
329
360
391
388
358
313
242
148
87
61
23
-14
-28
-42
-61
-51
-32
-30
-28
-21
-11
0
4
7
16
30
37
42
54
63
75
70
44
30
40
42
44
49
30
7
0
4
4
2
0
-2
0
0
-2
9
21
18
4
-56
-77
254
892
1048
143
-746
-407
120
-37
-106
63
44
-16
35
63
54
65
80
87
106
127
148
179
200
219
254
299
329
348
360
353
315
249
176
115
61
4
-23
-28
-35
-42
-30
-28
-40
-49
-51
-51
-44
-35
-25
-21
-16
-2
11
9
4
11
23
11
-18
-28
-14
-2
4
7
7
4
7
11
11
-16
-42
-35
-18
-18
-14
0
7
4
0
-42
-68
226
897
1218
402
-652
-482
82
-30
-155
0
11
-47
-2
23
7
23
44
51
70
89
98
124
162
193
223
266
299
313
308
299
280
226
143
77
28
-16
-49
-75
-96
-101
-89
-75
-68
-63
-56
-47
-47
-73
-82
-58
-51
-54
-40
-21
-16
-16
-9
0
7
9
11
16
28
35
35
35
49
49
40
35
25
25
40
47
40
44
58
63
63
54
-4
-4
374
1076
1276
334
-617
-301
207
35
-42
101
68
-7
18
35
25
35
42
49
68
80
89
115
148
176
212
256
294
313
320
320
292
226
146
80
23
-25
-54
-61
-68
-75
-77
-68
-68
-91
-98
-80
-73
-77
-63
-42
-32
-35
-42
-30
-16
-14
-4
7
4
2
16
28
28
25
25
35
47
47
44
54
58
54
56
61
58
56
54
35
18
28
42
47
40
0
-70
49
610
1246
984
-190
-669
-80
143
-96
-58
28
-37
-42
-4
-21
-25
-4
4
14
35
51
65
94
134
164
197
240
266
254
230
214
164
63
-35
-89
-129
-176
-202
-202
-209
-216
-209
-190
-171
-162
-160
-148
-136
-134
-124
-113
-108
-106
-94
-77
-75
-82
-84
-91
-106
-106
-89
-87
-106
-103
-80
-70
-65
-58
-42
-21
-23
-23
7
25
9
2
21
30
30
44
51
51
58
73
82
80
44
-2
186
791
1309
805
-376
-586
68
171
-37
68
120
40
58
75
16
16
61
65
63
89
127
146
160
197
245
282
318
346
360
358
353
320
247
155
65
7
-21
-47
-75
-87
-84
-82
-73
-51
-42
-44
-40
-21
-7
2
16
23
25
32
47
58
61
63
73
87
89
91
94
91
82
89
103
101
96
94
87
77
84
96
98
89
75
80
96
91
84
101
108
87
56
44
21
-23
174
791
1232
598
-532
-567
82
89
-84
54
80
-7
11
25
-18
-40
-37
-32
-21
4
32
58
87
124
162
204
247
275
294
303
280
221
153
87
23
-28
-65
-89
-101
-106
-96
-87
-89
-91
-84
-84
-98
-98
-87
-80
-75
-63
-51
-42
-40
-37
-25
-16
-18
-18
-14
-14
-16
-14
-9
-21
-58
-75
-61
-51
-49
-42
-40
-37
-18
-4
-4
-9
-25
-37
-23
-9
-9
-2
11
14
9
-2
-51
-54
301
980
1194
270
-725
-438
110
-35
-115
51
42
-14
32
58
49
65
87
96
113
129
141
160
193
223
256
296
334
355
372
381
355
296
228
164
103
51
18
0
-9
-11
-7
-2
-2
0
16
25
30
32
37
37
14
-11
-14
-14
-30
-37
-23
-14
-16
-14
-4
2
7
16
28
25
18
30
49
51
42
56
75
65
58
65
73
73
68
75
80
70
63
65
49
0
-65
44
579
1206
963
-207
-718
-122
136
-87
-25
84
21
28
84
75
68
98
115
120
139
160
155
146
169
219
259
287
318
341
341
318
287
228
131
44
-4
-35
-65
-84
-89
-91
-115
-139
-120
-101
-106
-98
-75
-63
-58
-47
-35
-28
-18
-7
9
16
16
23
37
44
40
37
40
44
47
51
58
58
56
65
70
70
87
98
84
58
54
61
65
56
44
40
37
30
28
21
-35
-56
268
940
1229
402
-643
-452
131
23
-89
58
30
-37
32
70
42
49
73
94
117
134
153
179
188
183
219
275
306
325
348
353
329
282
216
139
65
11
-25
-49
-61
-75
-80
-63
-51
-49
-32
-18
-25
-18
-2
4
16
25
25
30
44
49
47
56
61
61
65
73
73
77
75
65
68
75
63
35
21
32
37
18
-9
-32
-58
-70
-63
-56
-42
-40
-49
-37
-28
-61
-124
-2
525
1088
772
-351
-727
-87
134
-94
-21
65
-16
-9
37
18
28
68
82
84
106
134
155
181
223
266
294
322
360
381
358
310
273
214
127
65
35
-11
-58
-70
-61
-58
-58
-54
-44
-40
-44
-40
-23
-18
-18
-2
11
11
11
2
-14
-7
11
21
25
28
21
14
9
11
16
18
0
-18
-16
-18
-28
-32
-35
-30
-25
-30
-35
-40
-58
-89
-96
-80
-115
-174
54
683
1090
447
-629
-603
32
32
-115
40
75
4
42
84
70
80
110
122
127
143
169
193
219
245
266
287
315
341
358
362
341
289
230
167
96
28
-14
-30
-40
-42
-32
-30
-35
-25
-9
-4
-2
7
16
21
25
37
51
54
49
54
58
49
42
37
30
25
21
14
14
11
-16
-30
-21
-42
-80
-73
-63
-75
-68
-49
-44
-49
-44
-32
-23
-28
-68
-96
155
789
1175
478
-598
-525
89
49
-89
61
87
23
56
84
77
91
96
84
101
129
143
164
200
233
259
292
329
355
367
367
348
301
228
157
103
61
14
-18
-25
-28
-30
-25
-21
-18
-16
-9
0
-11
-42
-44
-21
-16
-16
-4
-2
-25
-49
-40
-23
-30
-44
-49
-47
-40
-37
-49
-73
-77
-84
-106
-110
-108
-113
-110
-98
-98
-94
-84
-89
-91
-87
-129
-216
-103
440
1027
723
-405
-779
-157
32
-188
-94
9
-63
-61
-9
-16
-16
9
18
16
25
44
73
108
139
174
216
252
280
301
318
310
266
200
139
84
37
2
-18
-35
-42
-32
-18
-18
-16
-7
4
11
21
30
23
-7
-32
-21
0
-4
-7
7
21
23
21
30
35
25
16
14
14
-2
-11
9
18
-4
-18
-11
-14
-28
-23
-11
-11
-16
-11
2
-16
-98
-82
334
982
1020
30
-720
-256
176
-30
-40
120
80
47
103
110
101
129
146
146
164
195
212
223
254
301
339
358
372
400
424
412
365
299
223
155
101
63
30
2
2
2
-23
-49
-42
-28
-30
-32
-37
-32
-16
-23
-25
7
23
16
28
42
35
35
51
54
47
44
40
28
0
-25
-11
-4
-28
-21
0
-14
-25
-16
-14
-21
-21
-23
-37
-44
-75
-139
11
577
1055
558
-537
-664
0
84
-106
28
101
18
30
70
51
54
89
108
115
134
160
179
200
242
278
301
334
362
374
358
318
275
202
91
14
-7
-42
-80
-80
-77
-87
-80
-58
-51
-68
-77
-61
-40
-32
-25
-7
2
7
16
30
40
40
42
54
61
56
58
73
77
63
58
75
82
65
61
75
77
68
75
89
82
70
65
63
56
28
-47
18
494
1086
874
-233
-730
-134
146
-77
-23
89
18
0
28
14
21
42
21
0
30
63
75
96
134
171
207
230
249
268
273
259
233
181
108
47
4
-30
-56
-61
-58
-58
-63
-54
-37
-35
-30
-14
-7
-4
0
14
28
28
28
40
51
51
49
44
30
21
30
49
58
40
32
54
56
47
54
58
51
44
49
58
61
56
49
30
4
-54
-40
343
996
1064
68
-744
-327
110
-91
-139
-28
-98
-127
-63
-65
-80
-44
-21
-18
-2
23
44
68
98
139
176
202
226
254
270
259
223
167
91
23
-25
-58
-89
-115
-122
-117
-120
-124
-117
-108
-106
-98
-89
-80
-77
-80
-73
-61
-58
-58
-51
-47
-47
-42
-32
-28
-37
-49
-51
-49
-54
-40
-21
-23
-28
-14
0
7
4
0
9
21
25
30
40
-9
-108
21
603
1163
772
-346
-610
14
148
-54
44
113
40
58
101
77
68
84
84
89
108
129
150
174
195
219
254
287
306
320
325
306
261
202
131
63
16
-9
-28
-47
-51
-49
-44
-42
-32
-16
-14
-30
-35
-16
-4
-2
9
16
18
25
28
21
18
23
32
37
40
40
49
54
51
49
61
73
68
63
73
75
75
82
87
70
42
35
54
58
28
-35
30
494
1128
1029
-54
-678
-129
204
-14
23
153
91
77
124
117
110
129
134
131
139
143
127
113
134
169
197
237
275
280
256
237
219
160
70
4
-35
-77
-113
-122
-122
-129
-134
-122
-108
-101
-94
-82
-73
-70
-63
-42
-30
-37
-40
-25
-14
-11
-9
-2
-4
-7
-4
-2
-7
-4
0
-4
-16
-11
-4
-16
-37
-70
-87
-63
-54
-70
-63
-44
-42
-47
-42
-70
-124
63
664
1109
523
-577
-600
70
96
-73
87
127
14
35
94
73
61
84
87
82
94
108
122
143
171
207
245
273
294
308
301
278
237
181
103
35
-14
-40
-54
-65
-73
-61
-51
-56
-61
-44
-21
-21
-23
-16
-16
-14
0
9
14
0
-25
-11
11
7
7
23
25
30
44
49
37
44
58
54
54
61
58
51
63
80
73
44
30
42
47
30
-37
-14
407
1017
940
-91
-702
-150
228
7
23
171
122
94
148
153
143
157
164
167
179
186
200
221
230
249
285
318
336
351
358
341
282
197
124
68
16
-28
-58
-70
-80
-84
-75
-82
-115
-117
-98
-120
-146
-134
-115
-108
-98
-84
-73
-61
-47
-30
-18
-14
-25
-42
-42
-37
-30
-11
-11
-25
-16
-2
-7
-9
7
18
16
14
28
40
47
47
44
44
0
-25
289
935
1152
313
-600
-325
219
94
-2
150
150
94
127
143
127
141
153
146
153
176
186
195
216
242
263
289
315
327
339
334
292
226
146
58
-21
-73
-91
-110
-129
-131
-115
-110
-122
-136
-136
-129
-115
-96
-80
-77
-82
-68
-44
-32
-25
-16
-9
-2
9
18
23
18
16
32
49
40
40
56
54
42
49
61
61
56
58
65
58
44
49
61
44
-21
2
412
1086
1187
219
-619
-237
214
35
4
148
108
77
139
139
117
136
148
139
143
167
174
155
146
176
197
190
207
237
245
228
200
146
68
-7
-58
-87
-113
-131
-134
-134
-134
-127
-110
-96
-91
-89
-77
-61
-56
-51
-40
-32
-30
-23
-9
4
4
-9
-18
-18
-37
-56
-47
-40
-47
-32
-11
-14
-23
-9
4
0
0
9
14
14
14
23
35
40
37
40
42
-4
-30
273
947
1283
506
-572
-478
87
16
-106
42
58
2
51
75
21
0
32
51
47
54
68
80
94
127
169
204
228
254
278
282
254
200
127
49
-9
-56
-98
-136
-150
-143
-134
-127
-120
-106
-98
-91
-80
-63
-51
-51
-47
-32
-21
-14
-9
0
4
4
7
18
23
18
18
28
35
37
42
44
25
4
0
-2
-7
2
18
18
14
14
23
30
30
30
40
51
51
51
54
28
-54
23
556
1192
965
-171
-673
-94
153
-77
-18
96
18
-4
44
32
9
28
47
54
65
84
103
124
153
190
233
268
292
310
329
325
285
221
146
75
21
-14
-37
-58
-75
-73
-58
-51
-51
-54
-49
-40
-47
-56
-44
-35
-37
-23
-9
-7
-2
11
14
14
21
32
37
40
42
47
54
56
61
58
37
32
49
56
16
-40
-49
-44
-56
-61
-44
-30
-28
-30
-23
-11
-4
-2
2
-21
-94
-28
457
1104
1008
-101
-777
-259
91
-127
-101
28
-44
-65
7
4
-21
0
16
7
16
44
61
75
94
120
157
188
207
235
256
247
214
153
65
-4
-51
-89
-122
-136
-139
-134
-131
-124
-106
-89
-84
-82
-73
-51
-32
-35
-40
-16
-11
-44
-49
-30
-32
-28
-2
7
11
18
21
32
42
40
49
61
58
61
75
84
84
82
84
103
110
101
91
80
70
68
68
61
56
51
37
30
-2
-73
51
593
1126
756
-367
-697
-58
134
-73
18
110
49
68
115
98
103
134
139
148
176
197
209
226
252
292
327
346
372
402
409
398
358
273
164
84
49
11
-42
-61
-49
-42
-42
-42
-35
-25
-28
-23
0
4
0
16
37
37
30
42
49
37
42
63
68
63
73
77
75
70
54
44
58
65
56
51
54
35
-4
-16
-9
-16
-18
-11
-18
-42
-44
-23
-14
-18
-30
-89
-101
249
897
1027
96
-768
-395
131
-25
-84
89
73
18
73
101
91
106
120
127
143
148
143
162
200
235
273
313
348
367
372
376
353
282
200
129
65
23
-2
-21
-32
-35
-30
-28
-28
-37
-42
-32
-23
-21
-11
9
16
16
25
40
49
56
68
73
63
68
87
94
80
70
75
77
68
58
63
65
51
44
54
47
23
11
4
-2
-4
0
7
7
0
0
11
11
-40
-63
233
888
1210
433
-610
-471
103
16
-106
25
7
-51
7
28
9
40
70
70
80
101
101
103
139
181
209
242
282
315
334
334
315
273
207
134
80
37
-2
-28
-37
-49
-58
-51
-44
-37
-28
-18
-7
2
4
9
23
35
40
40
47
56
56
58
68
73
68
68
65
51
44
58
58
32
16
23
11
-16
-30
-28
-21
-21
-18
-16
-16
-32
-63
-65
-65
-157
-223
134
836
1013
80
-836
-504
7
-141
-188
-23
-42
-84
-21
7
-2
21
51
58
68
89
117
146
171
204
252
296
327
355
374
369
336
285
216
143
82
37
9
-7
-18
-14
-9
-14
-11
2
14
18
18
25
35
40
40
40
44
42
42
56
65
63
61
61
51
47
51
51
37
11
-7
-18
-42
-70
-73
-63
-70
-75
-65
-51
-49
-51
-42
-28
-23
-23
-28
-61
-124
-25
499
1144
963
-169
-713
-131
153
-70
-9
113
47
40
106
106
96
117
134
148
164
183
207
228
252
289
334
367
391
402
402
379
341
282
209
134
75
37
16
-2
-14
-16
-14
-9
-4
4
9
-4
-16
-2
11
14
16
23
18
-4
-21
-9
-7
-25
-25
-11
-25
-47
-51
-56
-70
-68
-54
-56
-63
-58
-51
-51
-49
-47
-40
-32
-28
-23
-14
-4
-4
-7
-4
-42
-73
221
890
1215
419
-621
-440
155
54
-75
75
73
-14
9
44
35
44
70
87
106
124
141
169
204
237
273
299
299
308
336
346
325
270
195
124
70
23
-7
-25
-35
-44
-54
-54
-73
-101
-94
-70
-68
-61
-35
-25
-28
-16
0
11
18
16
14
18
21
21
23
16
4
-4
-9
-16
-21
-23
-23
-11
-7
-25
-35
-32
-40
-37
-18
-14
-14
-4
4
7
4
-23
-68
103
669
1159
683
-440
-621
23
103
-98
40
117
37
56
106
96
98
131
148
148
150
162
186
219
252
280
315
351
365
346
339
341
296
209
141
98
44
-2
-23
-40
-49
-37
-18
-18
-30
-25
0
18
18
14
16
18
18
21
35
47
42
42
58
61
56
63
58
37
30
47
54
25
0
7
2
-14
-16
-35
-68
-65
-51
-54
-47
-32
-30
-35
-37
-89
-87
313
954
947
-77
-779
-263
164
-44
-47
113
73
42
101
103
89
124
146
148
157
179
204
216
212
230
270
282
268
280
318
322
278
202
127
35
-54
-75
-82
-127
-139
-103
-94
-106
-96
-75
-68
-63
-51
-28
-16
-23
-21
7
28
25
14
11
18
30
30
30
40
47
47
37
30
32
35
28
11
7
16
14
0
-7
-11
-14
-14
-18
-23
-35
-96
-49
405
1010
866
-193
-737
-164
157
-63
-11
106
-7
-37
40
35
11
35
56
65
82
108
141
167
193
233
275
310
343
358
351
343
320
252
167
98
58
25
-9
-35
-56
-65
-58
-51
-42
-25
-16
-30
-35
-16
2
7
11
25
35
35
44
61
65
58
63
73
75
75
80
80
75
77
87
87
80
68
70
84
87
82
84
84
70
51
49
11
-58
129
753
1196
544
-600
-624
16
7
-162
-9
30
-44
-7
37
18
23
56
73
80
94
115
141
150
153
186
237
273
287
294
292
266
207
141
82
28
-23
-54
-68
-75
-75
-68
-63
-63
-56
-40
-40
-70
-89
-70
-56
-56
-44
-28
-18
-18
-11
2
9
7
0
-7
-2
7
0
0
7
-2
-7
9
14
4
9
9
-16
-40
-30
-16
-23
-47
-108
-82
336
1022
1064
18
-768
-315
80
-155
-179
-40
-96
-141
-94
-84
-94
-80
-70
-58
-32
-9
7
30
65
106
143
188
226
247
256
256
228
164
87
25
-21
-58
-80
-84
-87
-94
-89
-68
-56
-56
-51
-42
-30
-21
-11
7
16
14
21
37
47
49
51
58
61
63
63
75
87
84
73
82
80
42
30
47
44
35
30
21
23
21
16
28
40
14
-51
11
499
1166
1074
-16
-640
-106
221
-2
18
143
89
65
106
96
87
98
96
96
117
136
148
171
207
237
263
289
310
329
334
318
278
212
131
68
18
-25
-56
-61
-61
-63
-63
-58
-49
-40
-35
-21
-11
-11
-7
9
18
21
25
30
23
-7
-40
-58
-61
-58
-51
-40
-35
-30
-11
-7
-18
-11
4
4
-18
-47
-47
-23
-18
-16
-4
2
2
9
21
-4
-73
61
636
1222
852
-306
-631
-14
127
-84
16
91
4
14
63
40
23
49
51
40
51
73
91
115
141
169
200
230
254
270
275
252
202
134
58
-14
-73
-110
-134
-164
-197
-207
-190
-188
-186
-167
-150
-143
-134
-117
-115
-129
-131
-106
-91
-87
-65
-47
-47
-40
-21
-16
-11
-4
4
21
35
30
18
35
63
58
40
37
42
44
51
70
80
70
65
63
56
40
-18
-9
372
1022
1121
148
-690
-252
254
63
21
183
143
87
129
146
141
146
134
122
129
131
127
146
188
219
240
273
313
336
346
343
303
233
167
103
30
-40
-82
-96
-108
-141
-157
-136
-124
-127
-115
-91
-80
-70
-61
-56
-58
-54
-40
-18
-7
-2
7
28
30
21
28
44
42
42
61
73
56
54
77
80
68
68
70
75
84
89
91
96
94
98
110
101
28
-30
209
815
1144
419
-645
-558
87
63
-75
82
103
25
68
98
73
82
103
91
82
101
129
146
155
181
219
228
230
256
273
259
230
169
84
11
-40
-84
-117
-141
-155
-155
-155
-162
-157
-139
-134
-134
-124
-122
-120
-106
-84
-73
-77
-84
-70
-47
-37
-37
-32
-21
-23
-28
-21
-11
0
-2
-18
-32
-30
-23
-21
-16
-9
-4
4
18
28
21
25
51
58
37
-16
14
405
1022
1064
94
-662
-214
242
58
35
179
131
73
91
84
77
98
106
106
115
124
141
167
193
214
245
287
322
334
336
334
294
221
148
87
35
-9
-44
-56
-54
-54
-51
-56
-68
-61
-47
-37
-28
-23
-23
-25
-32
-30
-9
-2
-4
7
21
35
42
40
40
49
51
56
65
63
58
70
80
73
68
73
80
77
70
73
80
82
82
89
89
32
14
346
1017
1246
341
-652
-367
188
40
-42
127
113
51
106
124
98
106
127
122
98
77
87
110
129
146
174
209
242
266
285
285
245
174
84
4
-49
-87
-115
-129
-134
-131
-117
-108
-108
-96
-77
-65
-61
-51
-35
-28
-23
-7
7
11
2
-2
2
9
11
18
23
18
21
44
58
40
32
54
61
54
56
65
58
28
9
25
40
32
30
42
35
-25
2
435
1116
1163
129
-673
-235
197
-2
-16
134
94
63
110
101
77
84
77
65
77
84
91
113
143
176
214
245
270
296
310
303
263
197
120
49
-4
-44
-87
-122
-124
-110
-106
-103
-94
-82
-73
-63
-51
-40
-32
-30
-23
-11
-4
-2
4
9
11
16
25
35
35
32
40
44
42
49
63
54
30
40
56
49
18
-4
2
18
18
21
32
30
23
14
0
-37
-77
155
801
1251
614
-506
-520
98
89
-70
63
94
23
54
82
54
49
54
51
54
70
91
115
141
167
202
242
273
296
318
322
294
240
176
94
-4
-73
-98
-117
-134
-131
-117
-115
-115
-103
-84
-75
-73
-75
-75
-65
-54
-44
-30
-23
-23
-16
-7
-21
-47
-42
-25
-32
-49
-54
-47
-44
-47
-28
-11
-18
-18
2
9
0
7
21
28
28
25
18
18
23
32
37
32
-16
-35
263
916
1234
442
-610
-452
139
44
-84
56
51
-9
40
61
37
51
75
80
87
110
131
153
179
214
242
261
292
318
327
325
306
261
190
108
47
7
-25
-49
-56
-58
-61
-68
-77
-75
-80
-106
-101
-73
-68
-68
-54
-44
-37
-21
-7
-2
-9
-14
0
14
14
14
23
28
28
28
32
44
54
47
44
61
65
58
63
65
56
58
77
82
75
75
80
82
73
25
-25
169
751
1187
605
-530
-629
28
80
-110
18
82
14
32
68
56
65
91
96
106
127
129
127
160
197
200
207
252
282
292
301
289
235
164
87
18
-25
-70
-101
-96
-94
-103
-98
-84
-84
-80
-61
-58
-84
-96
-73
-56
-63
-56
-35
-28
-30
-23
-4
7
4
-2
4
9
7
16
21
-9
-23
2
16
2
-2
0
-2
2
7
14
21
18
11
7
2
-54
-103
150
765
1055
266
-782
-614
7
-73
-197
-28
-18
-106
-77
-54
-94
-103
-80
-63
-56
-35
2
32
61
106
155
193
223
249
275
285
252
197
136
70
11
-28
-56
-73
-75
-68
-61
-65
-68
-51
-35
-35
-37
-23
-11
-11
-2
18
37
49
49
54
68
75
75
82
82
73
77
94
101
89
80
91
84
58
58
73
65
61
75
87
89
87
80
77
75
14
-25
266
895
1144
320
-683
-482
87
-14
-115
37
35
-18
32
49
28
51
77
75
84
108
127
148
179
216
252
278
299
315
322
322
299
245
171
101
51
16
-16
-44
-49
-42
-40
-40
-28
-18
-18
-11
2
14
18
18
23
14
-2
7
23
23
23
35
35
21
11
11
21
21
-11
-35
-14
-4
-18
-11
7
7
7
14
21
25
30
40
42
11
-73
-106
202
850
1135
329
-680
-482
84
-25
-150
-25
-32
-80
-30
-14
-30
-14
4
7
21
49
65
80
106
146
183
212
237
259
266
261
233
181
101
18
-51
-110
-143
-155
-162
-164
-162
-157
-146
-127
-117
-115
-96
-77
-68
-54
-35
-28
-23
-11
4
14
18
21
32
42
40
44
58
63
49
44
65
75
63
63
75
84
84
80
77
63
35
32
51
47
-14
-42
256
907
1199
395
-612
-402
169
56
-56
87
75
11
58
77
56
80
103
96
89
98
120
146
174
193
214
249
285
313
327
322
296
240
169
108
49
-2
-28
-35
-40
-44
-44
-44
-32
-18
-16
-11
2
11
16
28
42
44
40
44
54
51
49
56
61
51
25
-2
4
21
14
11
32
40
32
40
51
49
47
51
61
65
70
73
77
65
0
0
360
987
1079
117
-718
-301
186
-7
-65
56
-14
-54
9
4
-16
28
49
32
44
80
103
129
167
204
235
263
294
322
332
320
292
230
141
68
30
0
-30
-58
-77
-73
-63
-63
-63
-49
-28
-28
-32
-11
2
2
14
18
0
-14
-2
9
7
11
25
30
32
40
32
30
47
54
42
23
-2
-9
0
-7
-7
14
16
14
23
28
-16
-70
143
753
1121
431
-605
-485
157
98
-58
110
143
49
68
103
87
77
84
96
117
131
146
157
167
193
237
278
306
320
327
320
292
233
167
103
42
-14
-42
-51
-63
-65
-56
-56
-77
-96
-87
-70
-75
-73
-49
-32
-30
-23
-11
-18
-40
-32
-7
0
-7
-7
4
23
28
16
16
28
23
18
35
44
37
35
44
51
51
58
65
63
49
-9
-14
341
994
1154
233
-650
-294
214
49
-11
136
108
56
103
113
94
106
108
98
108
117
122
139
174
193
188
195
228
249
249
245
223
162
77
14
-25
-61
-94
-129
-162
-190
-207
-197
-174
-169
-167
-146
-124
-115
-106
-87
-77
-70
-58
-40
-30
-28
-25
-14
-7
-9
0
18
21
4
11
35
37
23
16
11
18
23
28
37
40
37
47
58
35
-37
30
527
1175
1022
-77
-626
-70
216
0
54
171
103
91
150
146
136
167
174
157
164
181
186
193
193
195
219
247
268
287
289
263
214
150
63
-32
-94
-122
-148
-162
-157
-146
-146
-146
-129
-110
-106
-98
-82
-75
-75
-63
-49
-49
-61
-61
-44
-32
-28
-21
-9
-7
-7
-4
7
21
25
16
16
37
42
35
42
42
37
47
63
65
63
65
70
75
63
7
2
343
1005
1215
322
-617
-325
181
32
-35
120
108
63
106
120
113
139
153
155
169
181
164
153
183
223
242
259
287
301
294
278
249
188
103
28
-25
-73
-110
-124
-122
-124
-124
-115
-113
-110
-103
-91
-87
-106
-131
-115
-89
-87
-84
-65
-61
-63
-54
-37
-30
-32
-32
-21
-14
-21
-28
-30
-35
-37
-28
-11
-11
-35
-61
-54
-37
-40
-42
-35
-28
-23
-18
-18
-58
-120
68
678
1173
638
-508
-643
-21
4
-181
-35
18
-63
-44
-14
-35
-28
4
18
28
54
73
80
103
146
179
204
228
242
247
245
226
181
110
30
-28
-73
-108
-131
-136
-131
-129
-127
-127
-117
-108
-113
-110
-87
-77
-82
-63
-32
-35
-54
-56
-40
-18
-7
-7
-2
16
16
9
21
35
35
37
40
42
56
70
63
56
58
61
73
82
61
54
80
68
25
18
-11
-51
226
864
1142
341
-645
-409
204
96
-28
146
169
98
131
162
157
174
193
190
195
214
228
245
273
299
303
318
341
351
351
339
303
247
167
77
-2
-61
-89
-101
-113
-110
-101
-101
-103
-94
-84
-75
-65
-58
-51
-32
-11
-9
-7
9
18
14
4
7
9
11
16
7
-18
-28
-16
-35
-75
-63
-35
-49
-58
-44
-30
-25
-16
-2
11
9
-2
14
23
-47
-35
374
1005
1022
32
-702
-245
188
2
-7
146
106
73
124
136
129
148
146
124
122
150
181
195
212
245
273
282
299
325
339
320
263
188
120
56
4
-35
-70
-96
-103
-96
-89
-87
-82
-73
-63
-68
-58
-37
-35
-30
-14
0
11
16
21
30
25
2
-7
4
7
-7
-2
25
37
28
18
28
37
25
23
37
32
25
37
49
51
54
56
63
65
35
-42
37
553
1163
928
-190
-666
-77
179
-37
30
148
89
82
124
117
122
146
146
136
141
150
153
169
195
214
228
261
296
308
306
292
249
176
98
37
-7
-47
-82
-91
-87
-89
-87
-75
-68
-68
-56
-42
-32
-30
-32
-35
-44
-63
-73
-58
-49
-51
-44
-23
-18
-18
-16
-11
-9
-4
-11
-30
-35
-21
-9
-4
0
2
7
14
21
23
32
32
7
-16
-18
-68
-106
202
885
1218
431
-612
-449
131
35
-82
82
96
35
82
110
84
89
113
124
129
134
143
162
176
200
235
273
299
318
332
334
296
219
141
80
16
-32
-61
-87
-124
-148
-139
-120
-122
-120
-98
-87
-96
-101
-84
-73
-73
-58
-42
-30
-28
-25
-16
-4
0
7
16
21
14
14
21
23
25
35
37
32
40
56
56
47
44
54
63
65
65
68
75
80
82
87
51
-2
216
855
1338
758
-391
-487
136
160
-30
82
124
49
73
108
82
75
84
84
91
108
124
148
171
193
223
247
242
233
247
259
233
181
120
54
-9
-63
-91
-103
-113
-122
-127
-131
-127
-113
-101
-89
-80
-73
-58
-47
-42
-28
-9
-9
-14
0
21
30
28
25
32
44
49
54
58
54
58
73
75
65
65
75
63
47
58
68
63
54
56
75
82
77
80
82
65
7
51
501
1166
1130
42
-702
-226
129
-113
-113
16
-75
-122
-49
-37
-58
-32
-7
-7
7
35
56
80
117
160
200
226
252
280
294
287
252
186
108
35
-21
-58
-80
-98
-113
-113
-113
-115
-108
-87
-84
-94
-80
-56
-56
-68
-70
-58
-42
-44
-42
-25
-30
-37
-23
-16
-23
-25
-16
-4
-14
-18
4
18
0
-2
9
-9
-21
-7
-7
-11
9
25
25
23
0
-23
-21
-58
-134
35
624
1102
581
-546
-692
-28
54
-141
-7
65
-4
25
70
49
56
94
110
117
129
155
195
221
252
299
334
358
381
388
384
369
315
235
160
98
47
9
-14
-28
-30
-14
-11
-16
-9
4
7
4
14
28
37
37
35
37
47
49
47
61
77
77
82
84
63
51
65
75
68
68
77
75
37
-2
0
18
9
2
23
35
30
40
49
49
30
-32
-14
369
989
1008
4
-758
-296
162
-30
-58
84
30
2
63
61
49
84
106
110
127
143
160
186
223
252
261
266
301
336
334
318
294
233
146
63
-4
-44
-70
-89
-84
-73
-75
-77
-70
-65
-63
-51
-40
-30
-18
-11
-2
9
23
32
37
37
47
61
68
65
61
61
56
40
23
28
25
9
21
35
35
32
30
16
14
25
30
35
42
44
44
37
-25
-25
355
1024
1154
188
-706
-348
134
-44
-91
68
37
-14
42
58
42
54
54
58
77
87
98
120
141
174
216
249
278
303
320
322
289
223
148
84
30
-11
-37
-56
-70
-68
-54
-47
-44
-40
-28
-18
-14
-4
4
-11
-40
-32
-18
-32
-42
-28
-14
-16
-11
4
7
-2
2
28
37
21
21
40
40
35
42
49
51
49
51
61
70
70
70
73
44
-40
14
506
1175
1071
-56
-716
-188
134
-103
-82
47
-14
-28
32
30
14
42
63
65
80
106
127
146
179
221
261
292
318
339
355
341
296
230
153
80
21
-23
-49
-68
-84
-84
-98
-153
-183
-153
-141
-148
-127
-103
-98
-91
-80
-68
-56
-49
-35
-23
-23
-21
-7
4
7
7
9
4
-9
-16
-23
-30
-23
-14
-11
-2
0
2
11
16
21
28
40
42
37
30
-25
-51
273
968
1248
376
-657
-433
122
-11
-117
40
37
-23
25
49
21
23
47
58
75
94
110
139
179
209
240
282
308
299
287
294
278
207
127
70
23
-28
-58
-73
-82
-84
-75
-68
-63
-58
-51
-58
-77
-75
-56
-51
-54
-40
-23
-16
-7
9
16
28
32
25
37
51
40
35
51
61
58
70
80
70
65
75
80
82
80
68
75
96
84
61
70
82
70
61
47
-18
14
454
1088
1017
-65
-751
-221
157
-65
-40
110
40
7
75
73
30
32
65
73
75
96
122
150
181
202
219
256
287
303
322
318
273
214
150
80
21
-21
-54
-70
-75
-75
-70
-73
-65
-44
-42
-44
-35
-23
-9
-4
0
21
25
-11
-49
-40
-23
-25
-30
-28
-14
-4
-2
-2
0
9
16
11
21
35
23
16
23
18
18
35
42
23
16
21
14
9
-7
-89
-75
346
954
822
-296
-940
-376
-2
-223
-200
-54
-108
-129
-75
-73
-70
-49
-44
-30
0
18
40
73
103
139
179
216
252
273
278
270
240
179
98
35
-18
-68
-89
-84
-87
-96
-91
-75
-68
-65
-51
-37
-35
-28
-11
4
16
25
32
42
49
61
73
77
75
73
82
91
89
89
89
91
96
91
80
82
75
56
58
68
61
58
68
51
21
9
16
9
0
-14
-75
-44
391
1046
1024
-42
-789
-296
127
-82
-89
61
18
-9
40
32
18
44
63
75
96
113
127
157
193
226
263
303
329
346
360
360
329
263
186
122
73
28
2
-9
-21
-30
-18
-7
-4
-4
-4
-9
-9
2
14
18
11
-2
7
23
23
23
32
37
40
44
56
49
9
-9
11
11
-35
-61
-35
-21
-30
-21
-4
-7
-9
2
7
-2
-2
9
4
-7
-35
-82
68
643
1206
791
-395
-702
-61
82
-134
-35
54
-11
7
51
37
44
75
84
91
117
136
150
179
221
254
278
308
339
360
362
348
303
214
115
54
18
-23
-51
-61
-61
-61
-56
-44
-37
-40
-37
-21
-7
-4
-2
7
4
-14
-30
-16
2
-4
-11
-2
7
9
14
21
23
28
32
37
40
42
49
54
51
63
70
63
61
63
70
77
77
73
70
65
58
63
54
-11
-32
303
958
1168
273
-706
-428
122
-21
-106
49
9
-58
4
32
11
32
61
68
80
101
122
150
181
212
252
292
322
348
360
355
329
273
200
113
11
-68
-91
-94
-108
-117
-113
-103
-101
-87
-65
-58
-56
-44
-30
-23
-16
-2
9
11
11
21
35
42
35
37
54
58
58
63
54
35
28
42
65
61
32
40
73
73
56
40
18
2
0
9
9
-21
-56
-56
-54
-91
-160
-82
395
1001
852
-237
-810
-228
108
-115
-77
51
-11
-16
47
35
30
68
87
89
110
131
129
122
153
207
228
249
296
334
336
322
289
230
155
87
42
2
-37
-58
-54
-47
-51
-54
-54
-49
-37
-25
-16
-7
-4
2
18
30
21
2
-4
9
18
23
30
37
32
35
54
58
47
40
49
58
61
68
68
68
68
54
28
16
23
25
11
7
7
-2
-4
0
-9
-35
-89
16
527
1090
786
-367
-798
-148
103
-131
-51
75
2
0
68
61
49
82
98
91
101
129
150
169
202
242
280
318
343
360
369
365
327
242
141
73
28
-11
-32
-44
-61
-68
-54
-44
-44
-40
-32
-28
-25
-14
-2
-7
-18
-7
11
18
23
35
37
40
44
49
56
54
49
54
61
61
65
65
44
32
47
54
37
18
2
-4
-9
-11
-9
-7
-11
-21
-25
-35
-101
-113
268
942
1010
-37
-878
-417
54
-148
-160
11
-28
-80
-35
-18
-21
2
28
40
54
75
106
139
167
197
235
275
308
327
329
325
292
230
164
103
47
2
-25
-40
-47
-47
-37
-32
-35
-25
-11
-4
0
9
16
18
23
35
44
47
44
49
61
63
61
54
42
35
35
47
58
49
23
18
28
-2
-40
-42
-44
-65
-70
-58
-63
-87
-96
-82
-75
-106
-169
-65
461
1079
834
-296
-751
-146
89
-139
-75
35
-23
-18
30
25
32
63
75
82
103
127
148
176
214
254
282
310
346
369
372
353
313
245
167
103
56
18
-16
-30
-30
-35
-42
-35
-28
-23
-18
-7
2
7
7
14
25
35
37
40
42
23
-2
2
14
-7
-28
-18
0
4
2
-2
2
11
4
-2
2
-2
-21
-25
-28
-37
-40
-37
-40
-49
-77
-139
-40
480
1088
831
-301
-739
-113
129
-101
-35
77
11
16
77
70
58
77
91
108
127
113
94
117
157
183
216
259
287
299
308
306
263
186
113
56
7
-28
-54
-70
-77
-80
-84
-94
-110
-113
-91
-80
-103
-134
-127
-113
-115
-110
-103
-106
-103
-94
-84
-75
-75
-77
-68
-65
-65
-56
-63
-63
-49
-56
-63
-51
-51
-65
-65
-68
-75
-70
-65
-75
-87
-110
-174
-139
289
914
852
-204
-857
-292
108
-115
-94
56
7
-9
47
47
47
75
87
106
134
153
174
204
235
268
289
306
332
348
351
348
322
252
164
106
61
7
-25
-30
-44
-82
-94
-61
-44
-58
-54
-32
-25
-23
-7
11
18
25
40
47
54
65
73
77
75
75
84
96
94
87
91
101
94
77
82
84
73
70
89
94
82
75
77
75
61
-7
-25
306
907
998
77
-727
-313
181
-4
-61
94
56
4
49
56
51
84
96
87
96
117
129
153
195
228
228
233
273
310
310
292
263
204
124
61
21
-18
-58
-65
-58
-80
-113
-115
-98
-94
-89
-73
-56
-51
-51
-49
-44
-42
-30
-11
-9
-9
0
11
18
16
11
23
37
28
16
28
35
18
16
32
32
23
23
25
11
-11
-11
0
-14
-70
-136
23
596
1107
626
-525
-739
-108
-9
-207
-101
-37
-106
-80
-40
-56
-49
-21
-11
-2
23
44
40
42
84
134
167
202
235
254
259
245
204
136
56
-4
-37
-61
-84
-89
-87
-84
-77
-61
-44
-40
-35
-23
-7
2
7
18
28
32
40
54
63
63
61
58
40
21
32
51
47
32
35
44
44
42
40
47
58
58
63
73
75
73
80
91
65
-9
73
591
1222
1020
-103
-617
-44
212
-16
32
136
54
32
80
54
11
21
32
32
47
75
98
124
157
193
233
266
294
318
327
303
254
193
122
54
7
-25
-49
-61
-61
-54
-49
-54
-61
-68
-68
-54
-49
-56
-58
-47
-28
-16
-14
-11
0
14
16
18
28
35
30
25
32
40
23
-7
-11
9
16
14
18
23
21
30
42
49
47
49
56
49
37
9
-49
54
577
1163
845
-299
-662
-40
143
-80
2
101
32
25
63
51
44
58
61
65
87
106
122
153
188
209
223
249
285
294
282
268
228
155
82
28
-16
-61
-82
-82
-84
-87
-80
-70
-65
-58
-44
-28
-23
-23
-11
2
7
9
21
30
28
32
49
63
61
49
44
54
54
49
61
75
58
47
68
77
63
63
77
70
35
18
32
40
40
49
54
44
-4
-35
261
921
1236
452
-574
-405
157
47
-68
84
80
14
58
82
65
77
87
77
75
89
106
129
157
183
214
256
289
308
320
313
280
230
167
87
18
-23
-56
-80
-82
-87
-101
-108
-96
-80
-70
-65
-56
-54
-54
-35
-14
0
4
2
9
25
30
32
40
35
9
-11
0
14
2
2
23
25
4
16
47
25
-23
-32
-9
-7
-16
-16
-7
-18
-42
-42
-21
-28
-94
-98
254
892
1055
162
-727
-381
162
16
-51
108
80
18
75
94
63
65
80
80
70
68
84
110
139
171
200
228
256
278
278
261
237
195
110
16
-40
-80
-124
-148
-148
-153
-157
-157
-148
-134
-141
-146
-122
-106
-103
-101
-103
-124
-157
-167
-136
-110
-110
-106
-84
-65
-61
-58
-54
-44
-28
-16
-16
-11
2
7
4
7
14
32
42
37
35
44
56
63
63
56
18
-35
115
673
1170
706
-412
-596
73
193
-11
106
181
96
110
160
139
127
139
141
148
155
160
181
209
237
270
310
339
355
374
372
332
266
183
82
-4
-51
-77
-98
-113
-122
-115
-101
-115
-141
-134
-115
-113
-103
-82
-70
-65
-54
-32
-16
-14
-4
14
21
16
23
37
40
32
25
35
44
47
54
51
47
56
65
65
65
65
63
70
77
77
87
94
87
87
89
44
16
310
973
1300
525
-527
-391
195
106
-32
110
127
63
77
75
47
30
23
35
54
58
75
108
136
164
200
237
254
249
254
268
247
179
108
49
-7
-51
-80
-101
-110
-115
-120
-115
-106
-101
-89
-70
-61
-56
-44
-32
-30
-18
-2
7
7
9
21
28
28
32
42
42
37
42
51
61
63
49
51
70
68
61
54
40
40
54
61
56
37
25
35
42
28
-21
-14
346
1022
1227
320
-624
-334
167
14
-56
84
58
-2
11
0
-4
21
28
28
42
47
56
87
124
155
186
228
268
294
306
306
278
212
131
65
14
-30
-65
-82
-82
-82
-80
-70
-65
-63
-51
-37
-25
-23
-23
-11
-4
-7
-4
7
11
9
14
28
30
14
-2
9
21
18
23
30
28
28
42
44
40
47
54
51
51
54
61
65
63
61
70
80
82
70
54
0
-65
164
822
1232
523
-593
-548
51
0
-146
0
21
-44
-4
28
11
21
47
54
47
37
47
77
106
134
171
221
256
273
275
275
259
216
148
75
7
-42
-68
-103
-148
-157
-134
-127
-127
-113
-89
-80
-80
-70
-49
-35
-40
-37
-18
-2
7
16
23
21
18
28
30
21
14
23
30
35
40
47
51
44
44
65
75
40
7
9
21
18
23
37
37
11
7
32
35
-25
-101
73
657
1144
657
-475
-678
-51
51
-127
-14
47
-16
14
51
32
30
40
44
56
70
91
120
150
183
226
266
296
325
346
348
322
280
221
143
77
30
-14
-49
-68
-70
-61
-61
-68
-54
-37
-35
-28
-21
-18
-7
2
0
16
35
32
30
30
2
-7
18
21
0
14
30
18
11
25
37
44
42
28
25
32
32
30
30
16
4
11
11
-18
-49
-56
-54
-56
-58
-75
-134
-49
459
1046
786
-332
-779
-153
106
-124
-42
94
16
-7
51
44
28
56
80
89
108
129
150
179
214
252
287
313
336
355
367
351
282
183
117
65
-2
-47
-63
-82
-96
-89
-80
-70
-68
-75
-87
-103
-127
-122
-98
-98
-98
-77
-58
-58
-54
-42
-42
-56
-63
-51
-40
-47
-49
-37
-35
-40
-40
-32
-30
-47
-61
-44
-42
-68
-80
-82
-101
-124
-127
-127
-129
-124
-113
-106
-117
-176
-171
200
864
1027
106
-791
-445
82
-58
-108
47
21
-16
47
63
49
80
103
101
117
153
179
193
204
237
285
327
353
374
379
348
299
252
186
103
42
2
-47
-87
-87
-77
-87
-82
-65
-54
-42
-30
-23
-11
-4
2
14
28
37
37
37
47
54
51
54
61
65
70
80
84
75
73
82
82
68
56
58
70
58
40
35
25
14
16
25
25
23
30
30
28
16
-35
-61
242
895
1189
395
-624
-445
139
47
-65
87
101
49
91
108
84
80
63
49
70
94
106
131
171
207
237
273
308
339
353
355
334
268
181
115
65
21
-18
-44
-56
-70
-96
-98
-80
-80
-77
-56
-40
-37
-30
-18
-9
-4
2
14
25
23
21
28
35
35
40
42
37
30
32
32
16
2
7
14
4
-14
-18
-18
-32
-49
-49
-51
-54
-68
-91
-101
-96
-94
-91
-98
-129
-207
-200
183
850
1005
82
-817
-482
21
-131
-179
-23
-42
-70
-4
14
-2
25
56
73
96
124
146
164
193
237
282
315
343
374
398
395
376
327
242
160
115
82
35
-7
-18
-16
-21
-18
-4
0
7
11
23
44
49
44
51
58
63
80
101
98
82
65
63
68
65
63
65
65
61
56
47
32
21
11
0
-23
-44
-49
-56
-65
-56
-40
-35
-37
-32
-18
-11
-14
-11
7
9
-49
-56
294
949
1123
200
-718
-358
200
42
-21
150
124
73
131
139
106
117
153
169
183
207
230
252
278
308
351
395
417
428
445
438
398
348
273
155
70
49
23
-11
-25
-30
-35
-25
-11
-4
-11
-25
-23
-9
-7
-25
-42
-30
-21
-40
-51
-25
-9
-28
-35
-21
-14
-16
-18
-23
-32
-47
-47
-32
-40
-65
-54
-25
-32
-42
-32
-25
-28
-30
-30
-21
-18
-21
-11
4
-9
-70
-30
395
1038
1043
23
-718
-247
181
-7
-9
139
91
51
84
80
77
108
124
127
143
164
186
207
226
247
275
310
341
369
379
369
339
282
209
139
89
51
14
-7
-7
-7
-7
-4
-2
-7
-30
-44
-25
-14
-21
-11
7
14
18
25
18
2
-2
4
9
9
-2
-11
-11
-18
-32
-35
-28
-25
-28
-32
-23
-18
-30
-30
-18
-21
-23
-32
-51
-54
-37
-25
-18
-18
-35
-91
-44
407
1081
1067
-7
-739
-242
160
-47
-44
94
51
30
87
96
94
113
122
134
157
176
190
212
242
273
308
346
374
372
346
334
318
252
164
101
42
-30
-87
-91
-91
-108
-106
-84
-73
-68
-61
-49
-37
-30
-23
-7
2
0
7
21
7
-32
-65
-80
-77
-70
-70
-73
-73
-89
-106
-96
-80
-75
-82
-80
-65
-61
-58
-49
-47
-51
-37
-23
-23
-16
-4
-2
0
-2
-44
-54
270
949
1243
402
-621
-393
176
47
-58
96
87
28
75
96
82
87
77
77
108
124
131
164
204
233
266
301
334
355
369
374
353
289
207
146
98
40
-18
-49
-51
-56
-63
-68
-70
-63
-49
-40
-32
-23
-11
-4
0
4
9
21
35
40
37
35
25
28
35
25
9
7
2
-11
-14
-7
-16
-25
-18
-4
-4
-23
-47
-40
-18
-7
-11
-16
-4
4
-2
0
-18
-91
28
617
1182
737
-435
-687
-25
108
-106
11
110
35
42
98
91
65
61
82
113
124
131
157
197
226
254
296
334
355
369
376
369
327
256
183
120
58
16
0
-14
-25
-25
-21
-16
-18
-14
7
11
0
11
30
40
37
37
42
47
47
56
65
63
47
37
42
44
35
30
18
2
-9
-21
-30
-54
-82
-77
-80
-113
-124
-113
-113
-120
-115
-115
-129
-131
-141
-212
-164
289
916
829
-242
-883
-306
94
-127
-110
37
-16
-40
23
32
23
40
61
77
94
113
131
155
183
216
256
292
313
325
327
315
268
188
108
37
-25
-70
-96
-103
-113
-122
-117
-103
-98
-94
-80
-68
-61
-54
-35
-18
-16
-14
4
23
28
32
44
42
16
-9
-25
-54
-80
-77
-61
-58
-77
-89
-82
-84
-91
-84
-73
-68
-68
-65
-54
-42
-40
-30
-18
-21
-70
-110
129
770
1206
565
-551
-553
89
94
-61
77
101
35
80
115
96
110
139
141
155
183
202
214
237
278
315
343
372
395
409
407
386
343
273
188
127
89
56
25
11
9
7
2
-9
-21
-16
-11
-4
9
18
18
28
32
11
-11
0
16
14
9
21
30
32
35
37
32
30
32
25
25
25
11
2
0
-14
-23
-28
-35
-37
-30
-23
-18
-18
-32
-94
-113
230
923
1130
183
-763
-409
122
-47
-113
54
35
-9
49
75
63
77
94
108
131
150
167
188
207
230
254
275
303
325
332
334
313
254
179
110
56
9
-16
-28
-40
-54
-51
-35
-47
-75
-73
-51
-51
-47
-28
-16
-11
-11
0
9
7
7
18
23
21
25
40
42
35
37
54
56
42
51
65
47
28
37
47
37
23
14
9
2
-2
0
2
-28
-108
-30
478
1130
973
-164
-739
-157
127
-122
-68
58
-11
-11
58
56
44
68
84
91
110
136
164
188
212
252
296
322
343
365
362
320
266
212
143
58
-4
-42
-68
-82
-87
-84
-82
-80
-65
-44
-40
-42
-35
-23
-11
-2
7
16
21
23
42
58
49
40
51
56
54
61
65
65
70
58
44
54
56
42
32
21
7
9
9
-4
-7
2
4
0
-25
-108
-139
183
838
1090
242
-742
-471
117
-4
-103
49
49
0
47
63
49
47
0
-47
-25
14
37
65
106
146
179
214
252
287
296
292
282
230
153
89
28
-32
-56
-51
-58
-75
-75
-63
-51
-54
-51
-35
-28
-30
-25
-14
2
9
9
16
9
-14
-4
16
16
14
18
30
47
47
32
32
51
49
42
58
61
44
49
70
73
63
58
65
68
49
-23
-68
207
834
1095
263
-727
-475
127
4
-127
16
16
-37
0
28
28
37
56
73
87
101
127
160
195
233
266
294
329
358
365
351
306
237
162
96
44
0
-44
-73
-91
-106
-101
-91
-89
-87
-75
-58
-49
-44
-40
-25
-11
-4
7
18
21
25
30
40
56
61
47
30
28
35
44
37
35
40
37
42
44
42
42
51
58
56
58
63
44
7
-23
-75
9
511
1116
869
-270
-732
-117
122
-124
-65
51
-21
-47
0
2
0
21
37
54
70
82
91
103
124
162
200
235
263
282
292
285
245
171
101
44
-25
-98
-122
-122
-134
-134
-115
-103
-108
-108
-94
-80
-75
-65
-49
-42
-40
-28
-14
-4
-2
-2
4
11
11
9
14
18
21
21
16
23
28
18
18
21
16
18
25
21
11
7
7
-11
-49
-98
-148
16
619
1180
706
-485
-720
-98
-14
-214
-103
-47
-122
-108
-70
-75
-63
-44
-35
-11
16
35
58
91
127
167
202
230
256
270
275
266
223
148
77
21
-25
-61
-75
-75
-82
-87
-75
-58
-51
-44
-30
-21
-16
-7
9
21
23
25
37
49
51
51
49
40
30
42
54
51
44
54
65
51
16
18
37
25
7
-2
-4
4
9
11
21
30
32
42
44
-11
-51
249
942
1307
534
-544
-419
155
56
-65
89
89
18
61
82
54
54
70
75
84
106
129
150
171
204
247
287
313
336
353
348
318
266
197
120
51
7
-18
-42
-61
-68
-65
-63
-58
-42
-28
-28
-25
-11
0
2
9
21
25
21
7
-2
-4
-51
-103
-91
-63
-68
-58
-42
-47
-51
-30
-9
-9
-11
-7
4
4
2
4
11
16
21
32
44
44
47
54
56
14
-42
153
779
1305
789
-372
-544
87
143
-51
75
131
42
63
103
70
58
80
77
75
91
108
129
155
190
237
273
292
325
355
353
322
275
204
115
35
-16
-37
-63
-91
-98
-91
-113
-141
-131
-103
-98
-94
-84
-89
-94
-77
-54
-51
-49
-28
-11
-14
-7
11
14
14
18
23
37
42
32
35
44
51
58
65
73
77
68
70
73
63
65
80
82
70
65
77
89
84
51
-7
94
610
1196
923
-226
-680
-47
214
-23
30
131
35
0
44
40
35
63
68
68
94
113
124
164
204
226
259
299
320
320
292
263
242
179
89
25
-21
-63
-89
-98
-103
-106
-103
-91
-77
-75
-75
-61
-49
-51
-42
-18
0
0
4
16
28
28
21
16
16
25
35
32
28
30
28
28
14
-11
-16
-9
-11
-7
2
7
4
2
-2
-21
-30
-14
-2
-4
-9
-7
-9
-58
-25
379
991
961
-80
-817
-327
94
-124
-139
18
-40
-108
-63
-47
-65
-49
-21
-14
-2
18
42
70
103
141
174
207
242
263
268
256
221
153
70
-9
-82
-127
-148
-164
-169
-167
-155
-141
-129
-120
-113
-98
-89
-75
-58
-47
-40
-25
-7
2
2
-9
-18
-4
7
11
25
28
21
30
37
28
30
47
44
37
49
63
61
58
58
63
73
77
77
80
87
89
89
84
21
-61
155
810
1241
570
-572
-598
32
37
-124
21
61
-21
2
47
37
40
63
73
80
98
124
150
176
200
240
287
320
343
367
372
343
294
226
153
82
14
-42
-63
-68
-75
-70
-63
-68
-70
-63
-54
-49
-42
-28
-16
-11
0
14
14
14
28
40
42
40
47
51
54
58
65
65
58
65
80
75
68
80
84
68
44
23
14
-4
-42
-58
-40
-32
-51
-54
-49
-96
-134
146
826
1206
438
-673
-567
37
-35
-164
-9
7
-56
-4
35
18
18
23
30
49
70
94
108
122
155
207
252
287
308
329
341
320
263
190
115
49
2
-25
-44
-58
-65
-61
-51
-44
-35
-21
-18
-18
-4
11
18
18
21
30
32
28
35
40
16
-16
-9
7
4
2
9
16
18
21
25
35
40
37
40
56
65
58
54
54
42
40
51
49
18
-4
2
0
-21
-65
-122
30
607
1185
810
-358
-699
-73
96
-113
-16
73
4
11
63
61
65
89
94
98
124
150
176
202
230
263
303
346
374
386
381
360
320
254
167
96
49
4
-21
-30
-42
-51
-49
-40
-54
-82
-80
-54
-54
-61
-44
-21
-21
-18
-4
9
14
16
25
16
-18
-28
-4
-2
-11
-9
-7
-2
7
14
21
28
18
2
11
23
9
-2
-2
-16
-32
-23
-7
-16
-30
-21
-14
-30
-82
-155
-73
414
1034
899
-202
-822
-254
101
-122
-84
65
7
-21
30
35
42
75
80
73
103
141
153
171
209
235
237
247
294
322
313
303
285
214
117
54
-9
-98
-157
-155
-148
-164
-171
-157
-146
-153
-148
-122
-120
-136
-122
-98
-96
-87
-70
-63
-54
-44
-42
-37
-30
-16
-2
2
-2
0
0
-4
0
-2
-21
-25
-16
-25
-42
-35
-28
-30
-23
-18
-21
-16
-4
7
9
9
-16
-70
68
619
1166
789
-360
-680
-16
181
-42
51
153
75
56
75
51
28
35
54
73
98
127
155
183
214
252
296
336
360
374
388
384
339
259
179
117
68
21
0
-7
-23
-35
-18
0
0
-2
-4
-14
-14
2
14
18
23
32
44
56
58
61
65
70
73
73
70
61
51
51
49
32
23
23
9
-9
0
14
9
0
-4
-4
-2
-11
-30
-42
-51
-49
-40
-30
-49
-108
2
558
1182
897
-299
-772
-155
82
-141
-56
51
-44
-61
7
9
4
42
61
63
82
113
141
167
190
219
261
303
334
358
374
362
320
259
190
120
61
21
-4
-18
-28
-23
-16
-21
-18
0
11
14
21
28
35
40
47
58
65
65
56
58
65
61
37
11
4
7
11
9
-7
-21
-18
-18
-35
-35
-16
-21
-58
-84
-77
-61
-65
-68
-54
-42
-37
-32
-21
-28
-87
-89
268
951
1177
278
-690
-398
136
-9
-77
82
63
16
75
96
75
91
120
127
139
162
186
204
228
268
313
348
374
395
414
412
381
325
237
143
77
40
9
-21
-51
-70
-68
-58
-51
-40
-28
-30
-21
-4
2
4
11
21
23
30
37
47
49
44
44
56
37
-4
-11
0
-14
-32
-32
-35
-47
-54
-51
-49
-40
-30
-35
-44
-44
-35
-23
-18
-21
-18
-9
0
2
4
-28
-80
106
716
1236
739
-419
-603
42
129
-75
37
108
37
51
103
98
89
89
91
103
106
96
117
157
183
214
259
303
329
346
351
336
296
233
157
94
42
-2
-28
-37
-47
-58
-68
-84
-110
-110
-77
-65
-82
-73
-40
-30
-30
-14
-9
-16
-7
11
18
11
2
2
11
11
0
-4
-2
-14
-35
-42
-32
-25
-30
-35
-42
-49
-47
-44
-51
-47
-32
-25
-40
-58
-58
-37
-51
-120
-80
358
1005
1010
-9
-753
-268
162
-44
-40
120
70
42
110
110
84
115
136
122
134
164
183
209
245
280
313
318
310
341
374
360
320
270
195
108
47
14
-11
-35
-47
-47
-47
-40
-37
-32
-23
-16
-4
2
-9
-11
11
23
21
25
44
58
47
35
35
25
0
-14
-14
-18
-32
-37
-30
-32
-51
-54
-35
-25
-35
-49
-49
-35
-32
-32
-23
-11
-11
-18
-16
-9
-51
-103
113
716
1137
544
-556
-610
51
106
-63
75
122
44
63
84
49
56
87
87
98
134
157
171
202
242
273
315
348
358
360
334
278
235
181
91
25
-14
-56
-84
-101
-124
-136
-134
-122
-108
-98
-98
-91
-73
-63
-58
-44
-25
-16
-14
-2
11
9
11
14
-2
-14
-9
-9
-21
-35
-42
-42
-35
-42
-49
-47
-47
-44
-42
-44
-35
-35
-40
-21
-14
-23
-11
0
-49
-103
115
730
1175
591
-525
-605
11
18
-155
-2
40
-35
11
58
40
54
82
87
98
127
134
127
146
188
233
270
313
346
360
358
334
282
219
146
70
21
-2
-35
-65
-65
-56
-56
-54
-40
-25
-23
-28
-18
-4
0
7
23
28
28
32
42
47
44
40
51
51
40
35
35
28
23
25
11
-4
-11
-25
-37
-35
-37
-37
-30
-49
-82
-82
-65
-63
-65
-65
-106
-129
150
801
1187
471
-640
-579
44
0
-146
9
37
-25
18
58
47
54
70
70
80
101
120
141
174
207
245
289
325
343
358
369
351
294
219
148
82
30
0
-16
-32
-47
-42
-35
-56
-84
-75
-61
-63
-56
-44
-47
-54
-47
-32
-23
-21
-16
-7
-4
-7
0
11
14
4
0
11
11
-28
-54
-32
-44
-96
-113
-103
-115
-129
-122
-115
-115
-115
-108
-110
-131
-188
-216
56
718
1144
468
-654
-645
-32
-56
-207
-70
-42
-101
-58
-25
-37
-21
-2
2
21
51
73
89
124
174
216
252
289
325
341
336
313
268
193
108
49
11
-23
-49
-54
-56
-56
-49
-37
-25
-18
-16
-4
-2
-21
-25
-7
-4
-30
-44
-28
-9
-14
-16
0
14
16
14
14
16
21
25
35
40
37
28
23
32
40
28
11
0
-9
-7
4
4
0
2
9
11
14
7
-47
-30
372
1062
1192
207
-680
-315
157
-21
-58
98
70
28
82
101
94
113
131
139
153
174
195
226
254
278
313
348
358
365
384
384
346
285
216
153
89
32
-2
-30
-73
-106
-101
-94
-94
-82
-63
-44
-37
-40
-30
-14
-2
4
11
16
16
21
35
35
4
-18
-4
4
-2
4
21
18
9
9
7
2
0
-2
0
-7
-28
-42
-44
-51
-54
-44
-42
-42
-35
-32
-35
-30
-56
-115
4
546
1142
857
-320
-801
-176
73
-155
-77
37
-32
-30
16
-4
-4
28
32
37
63
73
58
68
115
160
190
228
268
296
303
296
268
209
134
61
9
-28
-58
-68
-65
-65
-61
-47
-35
-28
-25
-25
-16
-11
-7
16
35
32
40
61
65
61
73
89
91
89
91
101
103
101
106
101
80
82
84
47
7
4
16
16
16
2
-11
-23
-28
-25
-14
-7
2
7
9
11
-32
-61
235
883
1192
417
-631
-487
143
87
-49
96
91
16
68
101
75
91
124
127
146
179
183
186
221
263
303
341
367
395
424
421
388
341
270
183
120
82
47
2
-25
-16
0
2
2
7
11
9
-4
-9
7
14
14
21
25
25
44
63
61
56
73
82
70
68
73
68
51
18
7
9
-4
-4
2
-11
-28
-35
-42
-40
-35
-32
-23
-30
-65
-80
-58
-68
-143
-63
449
1048
798
-327
-791
-162
113
-101
-18
103
23
21
94
91
70
101
136
143
155
183
212
230
261
306
341
362
384
405
414
398
334
247
164
91
37
9
-25
-58
-61
-40
-37
-42
-37
-28
-21
-14
-9
-2
7
7
14
32
44
44
47
61
70
61
63
77
75
63
61
49
47
54
47
28
-4
-28
-18
-25
-54
-63
-61
-68
-68
-58
-56
-56
-54
-47
-40
-80
-134
68
695
1210
695
-468
-662
-47
25
-155
-32
14
-61
-23
28
11
18
51
61
73
98
122
146
171
200
240
289
325
351
374
379
358
310
247
171
103
51
11
-14
-25
-30
-28
-32
-40
-32
-18
-14
-9
-2
4
11
16
28
32
11
-16
-9
9
9
4
11
21
23
23
30
32
35
40
37
23
21
28
4
-30
-47
-54
-70
-91
-122
-134
-115
-120
-150
-160
-193
-221
61
756
1173
447
-680
-624
-4
-51
-193
-37
-9
-73
-30
11
2
11
28
37
58
77
84
96
115
146
188
235
275
296
310
320
299
240
160
82
11
-44
-82
-98
-113
-127
-131
-127
-136
-162
-157
-134
-134
-134
-115
-98
-96
-91
-98
-120
-120
-96
-80
-70
-68
-61
-44
-28
-23
-18
-7
0
4
7
14
14
2
4
23
16
-2
-11
-16
-18
-16
-7
2
2
-2
4
11
-18
-91
-35
438
1133
1154
96
-690
-240
164
-35
-30
115
68
44
103
106
98
131
150
150
164
188
209
233
263
303
332
339
351
386
409
384
318
245
171
98
40
2
-32
-58
-61
-51
-47
-49
-44
-28
-18
-11
0
11
11
11
28
40
44
44
54
58
58
63
73
75
73
68
68
73
70
54
44
49
51
42
28
30
23
4
2
11
7
7
9
7
7
18
25
23
14
-7
-58
40
572
1206
935
-263
-737
-122
103
-134
-75
28
-25
-23
28
35
30
21
9
30
65
80
96
131
164
200
245
292
320
334
346
343
308
235
143
70
16
-32
-68
-94
-122
-129
-113
-98
-98
-106
-103
-91
-84
-84
-68
-58
-75
-75
-54
-40
-37
-37
-25
-16
-18
-21
-16
-16
-18
-16
-11
-16
-18
-18
-35
-58
-54
-42
-44
-44
-51
-68
-61
-51
-49
-37
-32
-40
-30
-4
4
0
-2
-18
-73
18
518
1119
878
-270
-753
-122
150
-82
-2
134
63
44
96
101
101
117
134
153
176
195
214
240
278
313
348
393
426
438
449
454
414
341
256
186
127
73
44
35
9
-4
11
23
23
14
7
11
23
28
35
42
25
16
35
51
51
56
68
68
58
58
63
58
47
35
30
23
9
4
2
-25
-63
-56
-30
-42
-61
-63
-68
-65
-56
-51
-49
-42
-35
-21
-14
-49
-110
30
598
1177
824
-343
-716
-73
134
-77
9
80
-14
4
65
49
56
91
94
94
124
141
146
167
202
237
275
313
348
367
348
315
289
235
150
80
32
-7
-35
-49
-47
-49
-56
-49
-35
-25
-23
-16
-9
-4
4
14
23
23
11
16
32
23
-9
-18
-4
-14
-25
-14
-2
-11
-28
-28
-30
-47
-49
-35
-35
-47
-35
-14
-21
-32
-35
-28
-18
-16
-11
-2
0
-4
-4
0
-28
-84
87
690
1255
824
-353
-650
-42
80
-110
4
84
11
30
82
73
75
106
120
122
139
164
190
216
245
275
313
351
369
381
388
374
329
268
195
120
63
18
-23
-68
-94
-84
-77
-84
-77
-56
-47
-44
-35
-23
-18
-11
0
11
16
14
21
35
40
37
30
14
4
9
14
9
-4
-21
-25
-23
-25
-35
-35
-47
-68
-70
-58
-58
-58
-51
-42
-32
-32
-30
-18
-14
-42
-98
47
621
1234
921
-270
-713
-98
117
-101
-23
82
23
35
82
68
70
98
84
56
82
117
108
101
143
195
223
259
301
322
332
322
285
221
143
73
25
-14
-63
-89
-89
-96
-106
-98
-77
-63
-65
-63
-49
-42
-42
-47
-65
-70
-51
-42
-44
-47
-54
-61
-58
-54
-47
-51
-70
-87
-96
-103
-108
-110
-115
-115
-108
-101
-98
-103
-110
-108
-89
-77
-75
-68
-63
-51
-37
-32
-40
-98
-70
372
1036
1043
7
-756
-266
183
-23
-23
146
94
28
49
44
54
87
89
96
127
150
171
209
237
261
308
358
386
402
414
400
355
289
219
146
87
37
-4
-11
-16
-32
-30
-18
-14
-11
-18
-23
-18
-14
-4
14
21
18
30
44
49
47
47
49
47
44
42
35
16
2
0
2
-2
-9
-2
7
2
-4
-2
-4
-9
2
7
-7
-18
-7
4
7
-2
-58
-61
292
930
1074
136
-765
-398
141
-16
-73
77
30
-21
44
63
51
77
89
91
122
153
164
183
219
249
275
308
346
358
334
310
299
256
174
101
49
2
-30
-42
-44
-54
-58
-51
-37
-28
-23
-16
-9
-7
2
18
30
32
30
42
56
58
47
37
37
35
28
25
23
7
-11
-9
2
4
-2
-2
-9
-40
-58
-44
-37
-54
-73
-75
-65
-56
-47
-37
-37
-40
-70
-96
153
801
1227
551
-584
-577
63
54
-110
35
80
16
51
87
75
87
108
117
136
160
169
186
223
256
287
325
358
379
395
402
393
348
270
188
117
51
9
-11
-30
-42
-40
-30
-23
-21
-18
-9
4
9
14
23
25
28
37
47
49
35
14
9
0
-30
-47
-37
-44
-65
-73
-77
-87
-96
-103
-98
-84
-77
-77
-75
-75
-75
-65
-49
-44
-44
-40
-28
-23
-21
-51
-98
110
746
1246
671
-492
-588
58
96
-84
51
110
40
56
87
80
96
115
122
134
155
171
195
228
259
285
318
358
384
393
398
386
339
263
193
124
44
-18
-37
-49
-87
-117
-110
-96
-96
-94
-87
-82
-103
-127
-106
-80
-82
-73
-56
-58
-58
-40
-21
-18
-28
-35
-28
-23
-30
-32
-37
-49
-58
-49
-44
-47
-35
-28
-32
-37
-40
-44
-49
-47
-42
-32
-23
-18
-18
-9
-35
-91
82
685
1218
751
-414
-640
21
139
-70
42
124
56
77
110
75
68
103
122
129
146
167
181
188
214
259
308
341
355
372
384
355
289
221
153
77
18
-14
-40
-63
-70
-58
-54
-58
-49
-35
-23
-18
-14
-4
7
14
18
28
28
16
18
32
37
37
40
51
56
32
11
28
42
28
14
14
2
-23
-23
-7
-9
-16
-11
-14
-16
-28
-47
-42
-35
-44
-61
-108
-23
461
1041
810
-294
-770
-143
150
-80
-16
108
37
37
101
91
87
113
120
136
169
176
186
223
242
240
268
315
339
351
365
360
322
252
167
98
47
0
-32
-47
-58
-65
-54
-37
-40
-42
-30
-21
-18
-9
2
9
14
16
23
21
-7
-16
2
7
-11
-18
-9
-16
-23
-18
-30
-51
-58
-47
-44
-65
-80
-75
-84
-101
-94
-84
-84
-84
-80
-75
-75
-96
-160
-113
336
977
921
-143
-822
-294
96
-122
-120
-4
-75
-98
-58
-73
-70
-32
-23
-21
2
23
35
63
101
136
169
197
226
254
266
263
242
190
117
54
11
-23
-56
-75
-77
-80
-94
-96
-77
-75
-82
-65
-42
-35
-32
-23
-7
7
16
25
35
37
37
42
54
61
54
49
58
70
73
65
65
73
65
58
58
58
51
44
37
28
14
7
-2
-32
-65
-108
-127
162
836
1168
367
-680
-497
101
4
-115
47
63
4
47
77
65
77
98
110
131
150
160
181
204
209
226
259
285
303
320
327
310
261
186
117
65
16
-16
-32
-47
-56
-51
-37
-28
-28
-25
-9
2
7
14
25
30
30
42
54
56
54
47
40
40
40
44
49
44
44
61
61
49
56
63
42
2
-42
-49
-40
-54
-56
-37
-32
-47
-51
-58
-110
-171
23
645
1159
617
-544
-685
-61
-18
-193
-58
-2
-70
-32
16
4
9
40
58
70
91
115
134
160
195
235
275
306
322
339
355
339
287
223
153
87
40
9
-16
-47
-63
-56
-44
-42
-37
-21
-16
-11
-4
7
21
30
32
35
40
47
54
58
42
11
14
30
25
14
28
44
40
25
32
56
56
32
23
28
30
25
35
47
35
25
32
35
14
-61
-58
327
984
1081
94
-760
-339
157
-37
-89
68
42
2
58
68
49
73
94
96
106
117
131
153
186
221
261
299
325
336
343
351
329
266
186
113
58
18
-18
-40
-42
-44
-47
-42
-30
-30
-35
-21
-9
-21
-44
-47
-37
-54
-70
-58
-35
-37
-47
-35
-21
-16
-7
4
0
-2
9
23
18
14
21
28
23
23
30
30
30
37
51
56
44
37
37
37
-4
-101
-16
506
1074
753
-412
-831
-171
70
-167
-75
47
-35
-37
28
18
7
35
58
77
96
108
124
153
183
226
270
294
308
332
348
315
261
202
108
4
-47
-73
-110
-134
-141
-141
-146
-171
-186
-164
-162
-171
-153
-129
-127
-127
-117
-101
-91
-84
-70
-68
-77
-68
-42
-37
-47
-49
-49
-40
-23
-23
-18
-9
-16
-11
4
9
7
16
28
37
35
37
54
54
14
-54
32
515
1097
883
-221
-732
-141
153
-65
-11
98
16
-2
56
54
42
44
37
49
84
108
122
143
181
223
259
292
322
334
313
275
245
193
108
32
-9
-40
-65
-73
-73
-77
-80
-70
-68
-73
-70
-56
-44
-35
-25
-11
2
7
9
25
40
44
47
51
58
63
68
75
75
65
68
87
89
73
77
91
87
82
91
94
82
65
65
80
84
75
58
44
16
-47
54
586
1210
961
-204
-711
-127
122
-98
-37
68
0
2
58
49
37
65
80
61
47
65
94
110
131
174
212
219
221
245
266
254
219
167
91
16
-30
-61
-87
-108
-117
-113
-103
-98
-91
-77
-75
-73
-58
-44
-40
-37
-30
-21
-14
-14
-21
-18
-21
-25
-16
-9
-23
-44
-47
-44
-42
-32
-28
-40
-42
-30
-30
-30
-25
-25
-25
-25
-21
-14
-4
-2
-2
4
-11
-73
44
588
1187
885
-303
-770
-155
61
-183
-110
9
-58
-61
-2
-4
-9
18
37
54
73
87
113
150
183
216
259
294
318
341
355
348
308
235
153
77
21
-14
-35
-56
-68
-58
-54
-73
-82
-68
-51
-42
-35
-18
-7
-4
2
18
30
35
37
44
54
58
63
73
80
75
75
87
89
80
75
80
87
91
89
98
113
103
94
98
89
58
44
56
58
56
65
77
75
47
-18
-7
362
1024
1194
249
-704
-381
148
-7
-80
58
30
-9
44
58
49
65
77
87
103
103
96
115
153
193
228
266
299
315
320
325
313
242
124
30
-11
-47
-84
-103
-106
-113
-117
-115
-106
-96
-94
-84
-65
-54
-47
-32
-16
-14
-9
2
14
14
16
18
21
-2
-25
-11
2
-4
2
16
14
14
30
37
23
28
44
35
16
9
14
32
44
40
37
40
28
16
7
-42
-124
2
544
1093
756
-384
-765
-129
80
-143
-51
61
-14
-9
51
37
30
75
87
63
68
113
146
164
193
233
273
303
332
355
365
348
310
249
176
110
51
4
-28
-42
-42
-42
-44
-49
-47
-32
-18
-11
-9
-2
-2
-4
2
21
21
-7
-18
9
16
-2
4
21
21
14
11
11
9
4
16
32
25
21
37
47
37
28
35
49
42
28
35
44
28
11
11
4
-68
-110
171
798
1121
379
-683
-570
75
42
-94
56
75
7
54
94
75
80
113
127
127
141
174
202
219
249
310
358
360
355
374
384
351
296
230
131
25
-28
-42
-73
-103
-103
-103
-127
-127
-98
-98
-136
-150
-124
-108
-108
-94
-73
-63
-56
-44
-25
-9
-9
-16
-21
-23
-18
-16
-16
-16
-9
0
-2
-9
-4
-2
0
0
-11
-21
-25
-25
-28
-30
-37
-51
-65
-91
-155
-117
322
975
940
-136
-857
-343
49
-181
-174
-21
-73
-96
-30
-23
-37
-11
11
25
51
73
89
103
96
96
141
193
216
233
259
268
242
183
110
42
-4
-42
-68
-82
-94
-103
-89
-70
-65
-58
-47
-35
-25
-14
4
14
14
25
44
54
56
61
68
73
75
84
94
96
84
84
103
110
98
94
108
113
103
94
89
75
70
80
82
68
58
56
47
30
-14
-51
193
838
1279
619
-548
-584
61
58
-124
-9
21
-32
4
32
18
42
68
70
77
94
110
129
162
202
240
275
310
341
360
365
351
310
233
150
98
56
14
-14
-25
-30
-32
-28
-14
-4
-7
0
14
25
28
30
28
23
23
35
42
28
-4
-14
7
16
11
18
25
21
25
47
54
37
28
25
14
11
16
11
2
4
9
9
4
-9
-23
-28
-56
-162
-169
254
951
1064
82
-779
-386
82
-106
-134
32
0
-35
28
40
25
56
84
89
101
124
153
179
204
242
287
318
341
372
391
381
341
280
209
143
84
42
7
-18
-30
-25
-23
-16
-9
-4
0
4
14
28
35
35
21
11
16
28
32
35
35
40
51
58
63
58
44
49
63
56
56
63
32
-4
18
40
2
-16
9
7
-16
-11
-7
-21
-30
-25
-18
-18
-65
-113
110
727
1182
598
-532
-612
32
63
-115
28
70
-16
30
91
65
68
108
115
115
150
176
181
204
247
292
334
367
386
402
402
369
308
237
164
101
51
7
-23
-35
-49
-77
-82
-63
-49
-42
-37
-32
-28
-18
-2
9
16
18
18
28
49
54
56
65
61
32
9
11
25
30
23
32
35
21
18
25
2
-47
-77
-68
-61
-73
-87
-84
-75
-70
-68
-63
-87
-150
-94
362
1003
937
-143
-819
-261
141
-82
-61
75
-2
-16
58
56
42
77
96
96
108
136
164
183
209
256
303
334
360
386
395
384
353
292
209
129
75
40
9
-11
-18
-23
-23
-18
-9
2
2
-2
4
18
25
28
25
28
18
-2
-2
18
21
16
25
37
40
44
51
51
47
42
51
65
63
42
28
44
54
37
16
-7
-42
-49
-35
-32
-42
-51
-56
-58
-58
-80
-129
2
556
1149
831
-329
-737
-110
108
-106
-21
91
23
21
73
75
80
103
113
122
143
162
179
212
245
270
299
339
360
362
369
367
320
226
131
73
23
-30
-56
-56
-63
-70
-63
-56
-51
-44
-32
-18
-11
-11
0
14
18
23
18
0
-7
4
14
16
11
7
18
30
28
30
37
37
32
42
54
37
21
28
37
28
16
11
7
-4
-14
-14
-9
-23
-54
-63
-61
-117
-110
280
973
1152
207
-744
-414
113
-54
-120
44
25
-18
47
58
11
9
40
58
65
87
110
139
169
204
247
292
315
336
362
367
334
254
162
91
28
-32
-70
-91
-113
-113
-94
-89
-87
-75
-63
-56
-49
-35
-18
-16
-14
-2
11
16
18
25
35
37
40
49
58
56
54
61
65
61
56
58
54
42
